"Wave Length","Absorbance"
450,0.794353747565695
451,0.800139539848805
452,0.80454429155926
453,0.807530222996107
454,0.810699724690446
455,0.813944035273569
456,0.815502778056074
457,0.815245212421528
458,0.81527136064859
459,0.815453682717358
460,0.815042186095526
461,0.814618977581706
462,0.814886259724595
463,0.814624789335118
464,0.812567977496644
465,0.809689620114164
466,0.807417455962485
467,0.804901236940426
468,0.800326613386179
469,0.793909902414727
470,0.786762378704321
471,0.777931480212868
472,0.765519103192296
473,0.750588392302652
474,0.736318948200417
475,0.72335188470717
476,0.710140405460179
477,0.696167343633513
478,0.682122835601505
479,0.668235467471433
480,0.654218696955911
481,0.640352496624216
482,0.627031156216102
483,0.613630805433409
484,0.599210667460111
485,0.584181358887885
486,0.569865869174466
487,0.556631392482001
488,0.543868028041549
489,0.531284387160139
490,0.519019077957809
491,0.506928267057088
492,0.494815453708127
493,0.483208575547754
494,0.472898086761034
495,0.463924052153562
496,0.455886009840089
497,0.448845894456271
498,0.443137331901742
499,0.438498656777866
500,0.434161378005402
501,0.429792957252652
502,0.425691902896275
503,0.422010240127587
504,0.418485620201487
505,0.415103955139882
506,0.412203237656933
507,0.409872552503956
508,0.407842296804968
509,0.405952293432522
510,0.404203190134474
511,0.40239656749284
512,0.400298433459786
513,0.398072585267995
514,0.395990650502405
515,0.393841024174085
516,0.39122423383991
517,0.388379000145228
518,0.386021010874506
519,0.38424174571178
520,0.382461903376483
521,0.380600529228487
522,0.379297999273312
523,0.378979584744037
524,0.379362223019405
525,0.379892106581557
526,0.38023787321428
527,0.380291311488341
528,0.380127147003223
529,0.38008269569425
530,0.3804722652425
531,0.381173283666946
532,0.381769891875628
533,0.382118225742148
534,0.382421151771339
535,0.382731076571775
536,0.382833657818104
537,0.382659133908361
538,0.382371621872435
539,0.382069385463689
540,0.38180851345569
541,0.38182182575421
542,0.382277506111594
543,0.382899130499242
544,0.383287898459558
545,0.383541617728666
546,0.384070167932671
547,0.38487425056064
548,0.385579119807079
549,0.386155343705732
550,0.386948462030973
551,0.388010063966891
552,0.389049097651388
553,0.390086526087691
554,0.391537006824485
555,0.393549553424138
556,0.395770261086471
557,0.397855955558998
558,0.399705596536466
559,0.401121528846375
560,0.401855490880398
561,0.402081213370387
562,0.402262653453915
563,0.402537453192679
564,0.402742480054465
565,0.402993395656698
566,0.40368215692907
567,0.404869492616897
568,0.406160536484674
569,0.407244609496704
570,0.408116626405468
571,0.40876834843456
572,0.40919744212937
573,0.409648138366964
574,0.410321292332897
575,0.410958348675481
576,0.411201724295831
577,0.411279142138402
578,0.411702855829506
579,0.412447958381468
580,0.413061586723347
581,0.413411856066901
582,0.413699048734077
583,0.413875587154691
584,0.413765015467637
585,0.413682933727986
586,0.414240301580433
587,0.415510888188697
588,0.416997251655006
589,0.418367378065966
590,0.419627382772113
591,0.420671741408427
592,0.421379219954468
593,0.422119737377902
594,0.423432645991311
595,0.425241382540928
596,0.427038012588535
597,0.428664941636374
598,0.430236417538775
599,0.43143906632285
600,0.431684662428042
601,0.430994064900227
602,0.429920977128783
603,0.428615113117372
604,0.426770166076277
605,0.424411286135937
606,0.421883126507237
607,0.419104103210743
608,0.415704916415442
609,0.411928632129242
610,0.408451981673131
611,0.405294986107317
612,0.401921076244529
613,0.398344421399799
614,0.395258507508149
615,0.393138352618173
616,0.392141136674011
617,0.392806899859172
618,0.395665035436447
619,0.399806831808179
620,0.402953301236821
621,0.403601217863059
622,0.402361403204458
623,0.400619694136497
624,0.398439192940201
625,0.394358826962163
626,0.38699259829163
627,0.376519683539053
628,0.364729182123026
629,0.353822186181535
630,0.345108613994293
631,0.338608014842428
632,0.333807592075937
633,0.33053336931466
634,0.328842434116711
635,0.328412770245137
636,0.32862421264775
637,0.329231486085455
638,0.330426386011312
639,0.332171756057394
640,0.334190546469226
641,0.336737759695118
642,0.340401972843691
643,0.344705104995927
644,0.347569631780186
645,0.346734653259125
646,0.34162352009204
647,0.333777274835668
648,0.325742086766622
649,0.319558680487557
650,0.315750991695004
651,0.313444101561968
652,0.311659783846389
653,0.310240508195549
654,0.309338010787007
655,0.308640784112929
656,0.30767559298605
657,0.306566397907355
658,0.305764920796831
659,0.305353165478977
660,0.305201976273064
661,0.305349723493476
662,0.305707327686001
663,0.305793820260894
664,0.305115287977772
665,0.303136335546646
666,0.299694229228969
667,0.294839824227412
668,0.291896678185726
669,0.295331936734121
670,0.302082387525668
671,0.307965560305114
672,0.31219213965863
673,0.314980718735263
674,0.317052641168539
675,0.318872139265091
676,0.320659215485971
677,0.322213868065357
678,0.323176303993721
679,0.323359400066702
680,0.322828810340649
681,0.321789447350108
682,0.320533092293992
683,0.319588675915168
684,0.319406979814221
685,0.320020740005899
686,0.321322966868961
687,0.323349198008781
688,0.326098108290298
689,0.329332861769157
690,0.332934469879819
691,0.337153813115475
692,0.342220913495739
693,0.348110078981481
694,0.35477119222189
695,0.362373612496567
696,0.371217333618789
697,0.381406724560894
698,0.392802706773699
699,0.404982533861275
700,0.416971244306058
701,0.427329387143383
702,0.434640344168775
703,0.43810179984631
704,0.43801534025737
705,0.436043906321336
706,0.435065155856018
707,0.438257307980283
708,0.447784077894227
709,0.463490367824739
710,0.481440482703677
711,0.493460818745278
712,0.490035785841844
713,0.466461488544976
714,0.427294086672123
715,0.383628718899374
716,0.345666889323243
717,0.317930056333337
718,0.299900447230058
719,0.289203164754012
720,0.283614627778175
721,0.281328671868241
722,0.280943095381483
723,0.281645978699906
724,0.283074888153713
725,0.284947737683683
726,0.286980217699908
727,0.289026144621674
728,0.291023612754045
729,0.292840665449411
730,0.294382895207397
731,0.295751931620602
732,0.297106117169969
733,0.298407795662319
734,0.299545641854751
735,0.300637849433354
736,0.301902706109987
737,0.303319580722349
738,0.304669393277586
739,0.305806001181031
740,0.306652250941019
741,0.307045879830038
742,0.30686725984036
743,0.306279935883553
744,0.305640959217424
745,0.305204489643502
746,0.305043439402994
747,0.30517374457876
748,0.30558672064048
749,0.306220296585105
750,0.307052548639727
751,0.30817560643088
752,0.309653571567087
753,0.311371974847768
754,0.313137255731052
755,0.314857085326478
756,0.316530183983493
757,0.318143825945184
758,0.319702920961906
759,0.321282395559747
760,0.322935951705293
761,0.324635833971493
762,0.32640436514461
763,0.328406004391559
764,0.330794422311335
765,0.333562418432355
766,0.336675985405017
767,0.340270705759208
768,0.344539258294874
769,0.34941047523893
770,0.354419492091239
771,0.358897516999774
772,0.36230155937198
773,0.364513242111553
774,0.365933860512286
775,0.367229369533334
776,0.368876633867617
777,0.37092390949475
778,0.373158293411115
779,0.375397279524662
780,0.377578758471856
781,0.379672376825617
782,0.381593502172482
783,0.383177556598391
784,0.384219219040639
785,0.384607913886005
786,0.384447621362967
787,0.383977141961872
788,0.383363467455466
789,0.382633561372046
790,0.381790952244974
791,0.380882846011337
792,0.379928443976317
793,0.378884384175033
794,0.377723265186944
795,0.376483784080105
796,0.375224020229101
797,0.37399478045711
798,0.372863432639808
799,0.371881331188178
800,0.371021261709743
801,0.370257317415662
802,0.369747937272218
803,0.369805843546558
804,0.370544979274755
805,0.371551095903035
806,0.371994692134684
807,0.371175596934551
808,0.369054085403625
809,0.366289714347743
810,0.363726512008027
811,0.361782048888731
812,0.360303888086292
813,0.358946368536841
814,0.357551670879679
815,0.356147307057566
816,0.354735830619126
817,0.353260583390643
818,0.35176060560056
819,0.350442643446535
820,0.349567090698916
821,0.349286043491398
822,0.349598538714776
823,0.350460038377537
824,0.351948540331701
825,0.354234187858795
826,0.357154261667051
827,0.359729424438187
828,0.360380103889598
829,0.357985499316737
830,0.35285250110733
831,0.346582476975413
832,0.340965517837411
833,0.336986271553574
834,0.334679112150289
835,0.333661793217189
836,0.333653768026913
837,0.334552790632698
838,0.336245638599925
839,0.338538194685291
840,0.34130533483714
841,0.344586088082676
842,0.348535554127621
843,0.3534195666305
844,0.359597919145912
845,0.36702889919006
846,0.374384828796612
847,0.379098299256873
848,0.379244802180382
849,0.375793245473028
850,0.372385407604402
851,0.372403451273319
852,0.376556023833846
853,0.383303662393237
854,0.390968627516198
855,0.398941573763672
856,0.407277498153346
857,0.416113271848216
858,0.425681979366027
859,0.436292869959699
860,0.448069128055131
861,0.460934745577864
862,0.474903077454233
863,0.490108060468663
864,0.506535357761928
865,0.524085742974216
866,0.542876364544507
867,0.563102435949698
868,0.584377596224914
869,0.605282689765444
870,0.62341584481847
871,0.635820505467623
872,0.639912673118648
873,0.634554374473655
874,0.620424530258143
875,0.599167738385897
876,0.572536562624405
877,0.542386129200596
878,0.51077962147454
879,0.479823532785872
880,0.451165002808899
881,0.425359117888938
882,0.401432887002688
883,0.377339987778261
884,0.351618664329868
885,0.325003474777264
886,0.300380620347734
887,0.280967308492672
888,0.268442997737538
889,0.262408318938628
890,0.261171393221823
891,0.262833705659798
892,0.265868002882777
893,0.269380077542196
894,0.273065572445687
895,0.276844764690923
896,0.280495498805687
897,0.283690731636962
898,0.286324030075955
899,0.28851846712679
900,0.290350239947311
901,0.291796717797173
902,0.292964319207388
903,0.29413436064811
904,0.295543445850433
905,0.297293651400783
906,0.299459114679261
907,0.302083392789829
908,0.305070692001777
909,0.308268002842911
910,0.311661451250601
911,0.315336273205676
912,0.319258942476216
913,0.323288752627209
914,0.327350098131789
915,0.331381963694611
916,0.335161816333142
917,0.338425098424441
918,0.341152784047772
919,0.343533378778082
920,0.345669403698942
921,0.347503462816385
922,0.34900774657054
923,0.350233566485735
924,0.351208952696216
925,0.35200061923795
926,0.35285111717286
927,0.354049685790306
928,0.355668951773146
929,0.357595093320318
930,0.359794727808209
931,0.362394750734869
932,0.365512193353854
933,0.369125857327756
934,0.373000892981239
935,0.3765576345005
936,0.378979047134376
937,0.379792665029868
938,0.379353547520136
939,0.378544563890189
940,0.37802906845133
941,0.377943279252445
942,0.378180440914854
943,0.378654848089309
944,0.379294131493434
945,0.380052264562502
946,0.381006698780672
947,0.38228056797139
948,0.383849820650507
949,0.385577550671491
950,0.387396685866705
951,0.389293314806976
952,0.391172184453242
953,0.392945399527486
954,0.394729208297325
955,0.396735517824114
956,0.398994241579129
957,0.401369266465295
958,0.403799498482546
959,0.406326057202179
960,0.408911322266856
961,0.41144876904503
962,0.413933315684992
963,0.416441749620455
964,0.4189996033115
965,0.421652319515663
966,0.42456673410581
967,0.427786821658585
968,0.430915347112368
969,0.433324842367054
970,0.434756393897929
971,0.435540520459494
972,0.436251922629421
973,0.437314326478315
974,0.438892336870592
975,0.440928876922807
976,0.443214016090251
977,0.445566482322841
978,0.44799017141513
979,0.45058788426182
980,0.453382726736537
981,0.456336957132587
982,0.459467578408217
983,0.462777300515494
984,0.466143167302155
985,0.469429637520955
986,0.472643106061519
987,0.475844160884652
988,0.47900502541779
989,0.482126201491257
990,0.485394647455204
991,0.48904885506004
992,0.49318202648344
993,0.497801539261629
994,0.502936377792651
995,0.508500151584778
996,0.514187061037693
997,0.519778414855434
998,0.525450135758242
999,0.531578879107191
1000,0.538364421220839
1001,0.545799974519571
1002,0.553865713889023
1003,0.562485593740861
1004,0.571421278698195
1005,0.580452159961247
1006,0.589536295001925
1007,0.598613471754532
1008,0.607449775040148
1009,0.615909326374103
1010,0.624149562029565
1011,0.632297187345055
1012,0.640154040035707
1013,0.647496533005664
1014,0.654415107571854
1015,0.661088755057554
1016,0.667533545476497
1017,0.673859863296786
1018,0.680458937407293
1019,0.687615897906488
1020,0.695257645405158
1021,0.70338254571256
1022,0.712408690041154
1023,0.722777424334238
1024,0.734581778011373
1025,0.747857850785743
1026,0.762545986006719
1027,0.777380647674418
1028,0.789247449404991
1029,0.794827403845062
1030,0.793318877165612
1031,0.787368824266804
1032,0.781451753381757
1033,0.779435410512949
1034,0.782971920937726
1035,0.79125478925538
1036,0.801998213185342
1037,0.812930083119594
1038,0.822768682205636
1039,0.831162703010692
1040,0.838313042273785
1041,0.844796999876697
1042,0.85122672535481
1043,0.857735730024522
1044,0.864065936289871
1045,0.870216239493713
1046,0.876508508727181
1047,0.882922490095116
1048,0.888974121942851
1049,0.894527781883784
1050,0.900084584551339
1051,0.905952722294556
1052,0.911800438063845
1053,0.917396574774102
1054,0.923128345612047
1055,0.929336850921307
1056,0.935710839974502
1057,0.941702160768796
1058,0.947037210465216
1059,0.951589350741249
1060,0.955324340994462
1061,0.958662099135694
1062,0.962322244595883
1063,0.966497606225334
1064,0.970679716338096
1065,0.974411191534588
1066,0.977614056406577
1067,0.980147185096688
1068,0.98185116767848
1069,0.983237393327682
1070,0.985288305439915
1071,0.98828308266495
1072,0.991534464119202
1073,0.994440900140297
1074,0.99699784824369
1075,0.999059130447151
1076,1
1077,0.999517584714785
1078,0.997894193731133
1079,0.995185318806453
1080,0.991008908783252
1081,0.985423204546867
1082,0.979224425543539
1083,0.973017896233717
1084,0.966820549374384
1085,0.960782867619563
1086,0.955421392048804
1087,0.950868106933061
1088,0.946644494747791
1089,0.94245617578714
1090,0.938509482810602
1091,0.934851578498995
1092,0.931146746576288
1093,0.927353697052318
1094,0.923865917644846
1095,0.920730806845317
1096,0.917453128639158
1097,0.91380281219594
1098,0.910067838030374
1099,0.906275790112988
1100,0.901960560659544
1101,0.89694095010698
1102,0.891607433091518
1103,0.886124834192788
1104,0.880081440213661
1105,0.873235445860059
1106,0.865832945422196
1107,0.857963280531066
1108,0.849285779508047
1109,0.839662101076586
1110,0.829448791494414
1111,0.818872512893763
1112,0.807799778900608
1113,0.796339811585096
1114,0.785040364538455
1115,0.774271096601857
1116,0.763938572093761
1117,0.753997960546864
1118,0.744690670533654
1119,0.736103015967345
1120,0.727997773182471
1121,0.720275106320952
1122,0.713082823952604
1123,0.706280744248909
1124,0.699322027959961
1125,0.691883249941393
1126,0.684163803208484
1127,0.676385772397957
1128,0.668514013571779
1129,0.660740180961148
1130,0.653693440079081
1131,0.647777483282487
1132,0.642730149840054
1133,0.638112456969617
1134,0.633812776878867
1135,0.629821866826607
1136,0.625942745473949
1137,0.622033165356542
1138,0.618233164448364
1139,0.61470299977087
1140,0.611371686713712
1141,0.608170431208992
1142,0.605251500404035
1143,0.602744975356911
1144,0.600575152798909
1145,0.598703640386438
1146,0.597290417615923
1147,0.596406220891061
1148,0.59582725709137
1149,0.595330492577755
1150,0.594916945461306
1151,0.594531397148399
1152,0.59383104083522
1153,0.592478327296297
1154,0.590415343396083
1155,0.587682952233272
1156,0.58425717874662
1157,0.580242895421644
1158,0.575983746109058
1159,0.5717532724512
1160,0.567560517847968
1161,0.56341399871
1162,0.559525874087045
1163,0.556086154756416
1164,0.553052105110303
1165,0.550320864873488
1166,0.547878587301601
1167,0.545627781487193
1168,0.543301342755542
1169,0.540752280655134
1170,0.538138308867538
1171,0.535663300940792
1172,0.533358843916066
1173,0.53125346686646
1174,0.529519117586533
1175,0.528245414034909
1176,0.527242273977264
1177,0.526252764463477
1178,0.525183222240619
1179,0.523995413606222
1180,0.522619000303223
1181,0.52115050062828
1182,0.519918293157618
1183,0.519133737162925
1184,0.518687754697379
1185,0.518463282901477
1186,0.518590559903383
1187,0.519257600868372
1188,0.520478465010684
1189,0.522251880665626
1190,0.524774495214255
1191,0.528229616490731
1192,0.532615371506753
1193,0.537949480714338
1194,0.544444330606237
1195,0.552302602025279
1196,0.56145832858038
1197,0.571771316337085
1198,0.583200340331033
1199,0.595466690074661
1200,0.607683933008653
1201,0.618591351391516
1202,0.626993558266747
1203,0.631965866466526
1204,0.633190481134877
1205,0.631226331253559
1206,0.627152247709427
1207,0.62157346683239
1208,0.614263390726706
1209,0.604905535443243
1210,0.593541701880474
1211,0.580355382870085
1212,0.565492330093657
1213,0.549327529037325
1214,0.532583803717866
1215,0.515914411319201
1216,0.499695873509241
1217,0.484285804966608
1218,0.470172556768491
1219,0.45770048922233
1220,0.446880783660773
1221,0.437552719146052
1222,0.429546213254446
1223,0.422594749531409
1224,0.416249702594834
1225,0.410177828602199
1226,0.404409057614981
1227,0.399107973396522
1228,0.394246768030682
1229,0.389649395793313
1230,0.385255036413581
1231,0.381093361561672
1232,0.377086773289242
1233,0.373126666260351
1234,0.36927432638836
1235,0.365686443381314
1236,0.362374148617583
1237,0.359253037707501
1238,0.356410432452062
1239,0.354046838721104
1240,0.352117425680629
1241,0.350251789926785
1242,0.348107898910283
1243,0.345654588712056
1244,0.343079140203665
1245,0.340596314825624
1246,0.33836945037934
1247,0.336432063483746
1248,0.334598373438147
1249,0.332570189257583
1250,0.330188527049045
1251,0.327500820702992
1252,0.324604772492653
1253,0.321568621599954
1254,0.318506046751354
1255,0.315550355312984
1256,0.312698323792745
1257,0.309805484470622
1258,0.306759971096947
1259,0.303551467435571
1260,0.300192430833266
1261,0.296754539274422
1262,0.293479435202109
1263,0.290668928115463
1264,0.288414816768158
1265,0.28660524928507
1266,0.285210234617437
1267,0.284324585349923
1268,0.283919132443611
1269,0.283767078722168
1270,0.283691178994626
1271,0.283701670447339
1272,0.283812427029226
1273,0.283956122822752
1274,0.284155428345705
1275,0.284552802561743
1276,0.28520258228647
1277,0.286016943313066
1278,0.286970066425032
1279,0.288134442206657
1280,0.28944182083565
1281,0.290652784362724
1282,0.291646633183775
1283,0.292535354482394
1284,0.293422994600254
1285,0.294283798447316
1286,0.2951399734465
1287,0.296108761582319
1288,0.297191796838296
1289,0.298245150220961
1290,0.299242600060128
1291,0.300343060559526
1292,0.30163418534255
1293,0.303044394417141
1294,0.304545515782934
1295,0.306185150450826
1296,0.307879112170574
1297,0.309436846622249
1298,0.310861885407975
1299,0.312369526629133
1300,0.314052172591456
1301,0.315804639603561
1302,0.31761006533764
1303,0.319597559590647
1304,0.321761765496517
1305,0.323913652965283
1306,0.325988169703391
1307,0.328123774116097
1308,0.330390275701735
