"Wave Length","Absorbance"
450,0.839490892080945
451,0.846514382530835
452,0.852457345008948
453,0.856417731738888
454,0.859817076851269
455,0.86248207596853
456,0.862646950641243
457,0.854802217706863
458,0.852023529564301
459,0.851285500379849
460,0.850944630043181
461,0.850978714627965
462,0.852082895876971
463,0.852677677313854
464,0.850572370440937
465,0.846333737171136
466,0.841875546216365
467,0.837457118275447
468,0.832238423625853
469,0.826551252241696
470,0.820724258838501
471,0.812897538939293
472,0.801036551198174
473,0.786872485309706
474,0.773917696770345
475,0.76223191530675
476,0.749931633653181
477,0.736847174621771
478,0.724002914091583
479,0.711333390717877
480,0.698135745526246
481,0.684725989706234
482,0.671718585995378
483,0.658426432789953
484,0.643820406628387
485,0.628546061866819
486,0.61418112181903
487,0.601056374961616
488,0.588501465853409
489,0.576360038209903
490,0.564799443565844
491,0.55329619881398
492,0.541261059218649
493,0.529504730797732
494,0.519496899076856
495,0.511308764562751
496,0.50387131989909
497,0.496754661587981
498,0.490556483766028
499,0.485675449582919
500,0.481747137337076
501,0.478368339820938
502,0.475289914324452
503,0.471959416940029
504,0.468044272346337
505,0.464123489044278
506,0.461066663288837
507,0.458930781429204
508,0.45703943711738
509,0.45516391725898
510,0.453650999547604
511,0.452443886883067
512,0.450900127834667
513,0.448662518445443
514,0.446048129999121
515,0.44335597881903
516,0.440595906031459
517,0.437909974907951
518,0.435560236417811
519,0.433307696895092
520,0.430702219347207
521,0.428080979876749
522,0.42636947175865
523,0.426031271893055
524,0.426763595505379
525,0.4280305084067
526,0.429355562893057
527,0.430224887060117
528,0.430428688650956
529,0.430371417758393
530,0.430505729701057
531,0.43084456409318
532,0.431181180464122
533,0.431555848077232
534,0.43213523264414
535,0.432737347464393
536,0.432992129760898
537,0.43287016375242
538,0.432586069551181
539,0.432137116391869
540,0.431589905017847
541,0.431402277504084
542,0.431877625576188
543,0.432554170993662
544,0.432851871256803
545,0.433001752915462
546,0.43364993604636
547,0.434797454250106
548,0.435922383883315
549,0.436937861880204
550,0.438127389814387
551,0.439389951384699
552,0.440434995567539
553,0.441541678929391
554,0.443232157522478
555,0.445378070072112
556,0.44735398093872
557,0.449032726958277
558,0.450787186379001
559,0.452576158891635
560,0.453873390879175
561,0.454483167821942
562,0.454671733785759
563,0.454585371696676
564,0.454315634167444
565,0.454318774095457
566,0.455025726354605
567,0.456184043180591
568,0.457251924397851
569,0.458206449794825
570,0.459313070695463
571,0.460341765706221
572,0.460889203007919
573,0.461146273887426
574,0.461509526107128
575,0.461827524659538
576,0.461745819065456
577,0.461578535128059
578,0.461850910047559
579,0.462321963505613
580,0.462362069642333
581,0.462034603477883
582,0.461899093146202
583,0.461976057441537
584,0.46185190293528
585,0.461585577980394
586,0.461697196212363
587,0.462276770951758
588,0.462882512640132
589,0.463228168134086
590,0.463351886961702
591,0.463212998045279
592,0.462846848561922
593,0.462721331720057
594,0.463232810716109
595,0.464069083614091
596,0.464685057473777
597,0.46505698850708
598,0.465345085735707
599,0.465220411450559
600,0.464221967670757
601,0.462597971890164
602,0.460941208004525
603,0.459243341558052
604,0.457136051177181
605,0.454727288577357
606,0.452412474730807
607,0.450058367651796
608,0.4472385346332
609,0.444142732447119
610,0.441352052915005
611,0.438847310497225
612,0.436310501291163
613,0.433984740526687
614,0.432408990720578
615,0.431599602726151
616,0.431421460496418
617,0.432388986495633
618,0.434924806282698
619,0.437934007329481
620,0.439364475722849
621,0.438356079769241
622,0.435854904575084
623,0.432981665915356
624,0.429650465810872
625,0.424945904393552
626,0.41812827012532
627,0.409258045927436
628,0.399388403774844
629,0.390185193396563
630,0.382864415637191
631,0.377408847850661
632,0.373286762313364
633,0.370509448492159
634,0.369381263240674
635,0.369600371547821
636,0.370434017075369
637,0.371624683725937
638,0.373316120921139
639,0.375222293898233
640,0.376920368739764
641,0.378879700836886
642,0.381857626090398
643,0.385152192502418
644,0.386580656201004
645,0.384413607046954
646,0.378720818270555
647,0.370988056220672
648,0.363121273394536
649,0.356819784604195
650,0.352812316896935
651,0.350407778676942
652,0.34856168065549
653,0.347105385675671
654,0.34625584637054
655,0.34561136276515
656,0.344554601951301
657,0.343389569621353
658,0.34283565352987
659,0.342877104920232
660,0.343057374380761
661,0.343301157170568
662,0.343563896784718
663,0.343396949100869
664,0.342061708761687
665,0.338968431210962
666,0.333832036620491
667,0.326984810604539
668,0.322183847733832
669,0.325598633495745
670,0.333898715102535
671,0.341941636896311
672,0.347776627540938
673,0.351550772229617
674,0.354079989715239
675,0.356129316311931
676,0.35804100950316
677,0.35968167343378
678,0.360656084129076
679,0.360791915244428
680,0.360272686069218
681,0.359355776228376
682,0.358216444713405
683,0.357332445612505
684,0.357217702366261
685,0.357961053067342
686,0.359478094948646
687,0.361837923326838
688,0.365018687881065
689,0.368642667713248
690,0.372481904005256
691,0.37686601617416
692,0.382160768101991
693,0.38838703553684
694,0.395452924690311
695,0.403469538214552
696,0.412680885446033
697,0.423022837835558
698,0.434085064864627
699,0.445251795103735
700,0.455631827626048
701,0.464252468025019
702,0.470377395342513
703,0.473749022024908
704,0.474812400544496
705,0.47492351674652
706,0.476476568782223
707,0.48232281146185
708,0.494600652458642
709,0.513248951511989
710,0.534138076086057
711,0.54833275466797
712,0.545256439001792
713,0.519501806271705
714,0.475933465116915
715,0.426958338174402
716,0.384284997438003
717,0.353262939717783
718,0.333329616790981
719,0.321674075727294
720,0.315720402079687
721,0.313473529135606
722,0.313356230596402
723,0.314355199213793
724,0.315957284508838
725,0.317851576915786
726,0.319822504863003
727,0.321823895590322
728,0.323858225953497
729,0.325758843161285
730,0.327323697210948
731,0.328599900568596
732,0.329848171317414
733,0.331176499501852
734,0.332469299236543
735,0.333704009971591
736,0.334997747292917
737,0.33637908817475
738,0.337759779008137
739,0.339070127334664
740,0.340190291332597
741,0.340848651337136
742,0.340846405203526
743,0.340349266708149
744,0.339766040937511
745,0.339402195813788
746,0.339376642773953
747,0.339754599324241
748,0.340523411267011
749,0.341489547732662
750,0.342428956055096
751,0.34336045456957
752,0.344519879851585
753,0.34606293432423
754,0.347904640836344
755,0.349821394378955
756,0.351596917296418
757,0.353093115088472
758,0.354321421956269
759,0.355472795433177
760,0.356782065343825
761,0.358354683874908
762,0.36017065568018
763,0.36220862678959
764,0.364491002705316
765,0.367051010834865
766,0.369956195425511
767,0.373348944191916
768,0.377364828900475
769,0.381954582699197
770,0.386768091119871
771,0.391216298941443
772,0.394727524794046
773,0.397107254337491
774,0.398703987487356
775,0.400154849228336
776,0.401926788232632
777,0.404103627476468
778,0.406536775155443
779,0.40904649191849
780,0.411461857913788
781,0.413608017003467
782,0.415344731679981
783,0.416576445717026
784,0.417215081175058
785,0.417222168246451
786,0.416703287531006
787,0.41586555254595
788,0.414858478765117
789,0.413711781909321
790,0.412436223179432
791,0.411093981078167
792,0.40974838811898
793,0.408422329274854
794,0.407117319201687
795,0.405808215614434
796,0.404415783545544
797,0.402884159521757
798,0.401309667082829
799,0.399903741842461
800,0.398791980009476
801,0.397933054669825
802,0.397303773668245
803,0.397067928860772
804,0.397403506933845
805,0.39810836617887
806,0.398481995732425
807,0.397755043025165
808,0.395737062902839
809,0.393005666719999
810,0.390403195812609
811,0.388364012657278
812,0.386766706760475
813,0.385334988895071
814,0.383970212700982
815,0.382681537905509
816,0.381400775965273
817,0.380039257366777
818,0.378663104373815
819,0.377491074399354
820,0.376724306301946
821,0.376418096707746
822,0.376521551605959
823,0.37703335458477
824,0.378134602750069
825,0.380066621993773
826,0.382663636827333
827,0.384954872089628
828,0.385479145763593
829,0.383259297358558
830,0.378554097676398
831,0.372684844291805
832,0.367184455310415
833,0.363049946944823
834,0.360537536415457
835,0.359424451257939
836,0.359385237506991
837,0.360175687066039
838,0.361617915246978
839,0.363576536624469
840,0.366047854620587
841,0.369156630187204
842,0.373048304502775
843,0.37790892440098
844,0.384062408685148
845,0.391532675824676
846,0.399047656633445
847,0.403921321165901
848,0.403968058224835
849,0.399996615791531
850,0.39578524861549
851,0.395043432670391
852,0.398738457618941
853,0.405381314683468
854,0.413215291694076
855,0.421563676065102
856,0.43048150766902
857,0.440113330049252
858,0.450640931355344
859,0.462269233041105
860,0.475058114801186
861,0.488983437696656
862,0.504189507082037
863,0.520939834753114
864,0.539307092244159
865,0.559262994206685
866,0.580958079806108
867,0.604500676529554
868,0.629243270768375
869,0.653366239946975
870,0.67404254209316
871,0.687976506974438
872,0.692494715684451
873,0.686681841867578
874,0.671606615411868
875,0.649156778589458
876,0.621049794467176
877,0.589014100191425
878,0.555126115786958
879,0.521692270228565
880,0.490572719832896
881,0.462373187299554
882,0.435967625655554
883,0.409052711686868
884,0.380018164548887
885,0.349713956898579
886,0.321416440962677
887,0.298818472474374
888,0.283945989138102
889,0.276498313952019
890,0.274670333882865
891,0.276347745220724
892,0.279744877340184
893,0.283731127419887
894,0.287850083175028
895,0.291991372621614
896,0.295970372084314
897,0.299476176269697
898,0.302377349095831
899,0.304781799809871
900,0.306798164024716
901,0.308452756967894
902,0.309871093236199
903,0.311323047111417
904,0.313033544621824
905,0.315095263760759
906,0.317560919995081
907,0.3204529664793
908,0.323693972743796
909,0.327195085818555
910,0.330984541978761
911,0.335098112132616
912,0.339383774390795
913,0.343636442105513
914,0.347850559976593
915,0.352105897200696
916,0.356245426575826
917,0.359939353179118
918,0.363068710047696
919,0.365793414482155
920,0.368247756446169
921,0.370375363868666
922,0.372102369860502
923,0.373460504662755
924,0.37453039439689
925,0.375453343903679
926,0.376502875272804
927,0.377959410124491
928,0.379873350533214
929,0.382083420698413
930,0.384473396169584
931,0.387113566109316
932,0.390152847097688
933,0.393663130317908
934,0.397476522536349
935,0.401036228092858
936,0.403549772673812
937,0.4045688502418
938,0.404408340193816
939,0.403850355944953
940,0.403497383762659
941,0.403513564698665
942,0.403821546160304
943,0.404281538254584
944,0.404750913889789
945,0.405233111899033
946,0.405967768884262
947,0.407191094062375
948,0.408835472431999
949,0.410645019847287
950,0.412522762767255
951,0.414551594888898
952,0.416731921176872
953,0.418929296097503
954,0.421081320359309
955,0.423239755782474
956,0.42541992951294
957,0.427600094580511
958,0.429846995676925
959,0.432260160861509
960,0.434802707301424
961,0.437366407405528
962,0.439971825401548
963,0.442729170551721
964,0.445653880648091
965,0.448704436044179
966,0.451930496071736
967,0.455329805917894
968,0.458575150475397
969,0.46114031993424
970,0.462789604849094
971,0.463803515933462
972,0.464721953600876
973,0.465973792548404
974,0.46771787081713
975,0.469884014232022
976,0.472318776210503
977,0.474969566285696
978,0.477909296742378
979,0.481154170992055
980,0.484563933745276
981,0.488009071290728
982,0.491536638508071
983,0.495232213898296
984,0.499036660486545
985,0.502828580098271
986,0.506570362153751
987,0.510251522314446
988,0.513822240473622
989,0.517336840068559
990,0.52102964697105
991,0.525099739382904
992,0.529563008109881
993,0.53442859402531
994,0.539806788968949
995,0.545658847906628
996,0.551635508814413
997,0.557453469639236
998,0.563280233569489
999,0.569513605290123
1000,0.576347101712849
1001,0.583751176616529
1002,0.591732343879193
1003,0.600299112423295
1004,0.609279912341305
1005,0.618419464847054
1006,0.627557409345318
1007,0.636539755662041
1008,0.645138881817435
1009,0.653297183476971
1010,0.661256384616508
1011,0.669227343203432
1012,0.677106984566117
1013,0.684717910863156
1014,0.692078825348283
1015,0.699224530969078
1016,0.706062428506643
1017,0.712655238752408
1018,0.719372946233154
1019,0.726533663971541
1020,0.734188601912347
1021,0.742446353183949
1022,0.751657948819872
1023,0.762057756768427
1024,0.773573389864412
1025,0.786164311955795
1026,0.7997025180616
1027,0.813004968062359
1028,0.823459016070038
1029,0.828500384167786
1030,0.827600054604721
1031,0.822781741163666
1032,0.817528580730166
1033,0.81519140416419
1034,0.817598501866007
1035,0.824358963372084
1036,0.833474972322266
1037,0.842838658274602
1038,0.851290151788001
1039,0.858469920176828
1040,0.864419302827512
1041,0.86956295875682
1042,0.874535066450152
1043,0.879602044647194
1044,0.884582713308488
1045,0.88943469716634
1046,0.894419697035841
1047,0.899537725716186
1048,0.90437600634834
1049,0.908787211558608
1050,0.913131106885837
1051,0.917599920127799
1052,0.921948457675942
1053,0.926156157491997
1054,0.930678443120426
1055,0.935718712458047
1056,0.940884311836311
1057,0.945811399387819
1058,0.950526990299025
1059,0.954964904628669
1060,0.958789559888925
1061,0.961981353931226
1062,0.964992851940994
1063,0.968047795061287
1064,0.970899887933941
1065,0.973457970705876
1066,0.975968322523484
1067,0.97842572886255
1068,0.980551921501525
1069,0.982579741294005
1070,0.98523609330557
1071,0.9886616371384
1072,0.992082987447542
1073,0.994837558927438
1074,0.996995123129743
1075,0.998724271393
1076,0.999795592946936
1077,1
1078,0.999210136258657
1079,0.996872920740343
1080,0.992397267579198
1081,0.986315626968238
1082,0.980190954015975
1083,0.974990166456191
1084,0.970412378740469
1085,0.965982131299677
1086,0.961853504269779
1087,0.958201392913517
1088,0.954717469111348
1089,0.95118984675791
1090,0.947863903288561
1091,0.944848347663827
1092,0.941803773991597
1093,0.938570196767495
1094,0.935430513697233
1095,0.932455656817886
1096,0.92924986065504
1097,0.925660390386006
1098,0.922060606031741
1099,0.918624427925424
1100,0.9149800359163
1101,0.910832811865391
1102,0.906288571887843
1103,0.901328844220393
1104,0.895565752615782
1105,0.888948086719456
1106,0.881926571519654
1107,0.874708992751583
1108,0.866958693319418
1109,0.858427326031032
1110,0.849309823142693
1111,0.83971287809007
1112,0.829484743114145
1113,0.818794682797351
1114,0.808243220850442
1115,0.798202527992365
1116,0.788571336565819
1117,0.77935522898937
1118,0.770875079675602
1119,0.763212894595756
1120,0.755992534379789
1121,0.74896317958484
1122,0.742256024594936
1123,0.735838671421811
1124,0.729254442664863
1125,0.722170408131633
1126,0.714708937148087
1127,0.70701446622724
1128,0.699036826025618
1129,0.691072625094893
1130,0.683959967855292
1131,0.678240673947999
1132,0.673568119346164
1133,0.669279228421961
1134,0.665137685077554
1135,0.661215385712753
1136,0.657477963378976
1137,0.653841011026494
1138,0.650364849235943
1139,0.647104577334346
1140,0.643958189373076
1141,0.640904579753695
1142,0.638168700143905
1143,0.635922616307608
1144,0.634074388987953
1145,0.632524450564161
1146,0.631364751524897
1147,0.63062590761462
1148,0.630082314826135
1149,0.62954796613929
1150,0.629080176704789
1151,0.628664888459625
1152,0.627956891112489
1153,0.626590855667023
1154,0.624494222492453
1155,0.62171790286963
1156,0.61825534665691
1157,0.614210054726868
1158,0.609899253909559
1159,0.605550042799222
1160,0.601138991843244
1161,0.596689806588816
1162,0.592458610870592
1163,0.588644566742193
1164,0.585168588531609
1165,0.581937442347267
1166,0.579063902445429
1167,0.5766129916593
1168,0.574355177486872
1169,0.572021807564422
1170,0.569617008334489
1171,0.567273179125258
1172,0.565020544973024
1173,0.562900313138419
1174,0.561120583202488
1175,0.559850150010765
1176,0.55896157995198
1177,0.558153988584422
1178,0.557198448323042
1179,0.55595695840914
1180,0.554398100004433
1181,0.552771360843001
1182,0.551539017858355
1183,0.55091514284913
1184,0.550672258392828
1185,0.55056153137412
1186,0.550670513777258
1187,0.55124243828124
1188,0.552379289177123
1189,0.55413399399331
1190,0.556700329983321
1191,0.560206510676862
1192,0.564566284759651
1193,0.5697421580258
1194,0.575968182105862
1195,0.58353166509277
1196,0.592419444892566
1197,0.602460306941687
1198,0.613545134721491
1199,0.625388000424674
1200,0.637164529915339
1201,0.647667661682373
1202,0.655710313408151
1203,0.660362679626746
1204,0.661316860277692
1205,0.659106956447059
1206,0.654751560419823
1207,0.64887283438395
1208,0.641415987616266
1209,0.632288503872377
1210,0.621605323902173
1211,0.609415742296483
1212,0.595650196849814
1213,0.580557699312445
1214,0.564845748557146
1215,0.549162584563129
1216,0.533832083259512
1217,0.519157947043845
1218,0.505644851510255
1219,0.493704592443322
1220,0.483393356786257
1221,0.474530978347428
1222,0.466894087125398
1223,0.460190798732587
1224,0.453995371152995
1225,0.448009427013536
1226,0.442269903996553
1227,0.436947987940402
1228,0.432071288495679
1229,0.427546627693519
1230,0.423333794033396
1231,0.419392604178527
1232,0.415574854096734
1233,0.411785342540687
1234,0.408138477205194
1235,0.404791366784256
1236,0.401703760268451
1237,0.398746825574291
1238,0.395972448192988
1239,0.393537982984286
1240,0.391413532122648
1241,0.389368484904581
1242,0.387230710591937
1243,0.384980946580194
1244,0.382629725405845
1245,0.3802052451714
1246,0.377831569108264
1247,0.375616348044324
1248,0.373462107559497
1249,0.37115818071676
1250,0.36864181517172
1251,0.36600879787618
1252,0.363300714078323
1253,0.360458863618364
1254,0.357498868538046
1255,0.354543985365071
1256,0.35164960939322
1257,0.348749036188833
1258,0.345785555989419
1259,0.342750639004909
1260,0.339611211626875
1261,0.336391196044695
1262,0.333308227771627
1263,0.330645373581949
1264,0.328489455963884
1265,0.326755837251874
1266,0.325464800406469
1267,0.324729403028262
1268,0.324503456779214
1269,0.324559173389523
1270,0.324739319238788
1271,0.325035452109874
1272,0.325405556807117
1273,0.325764959095588
1274,0.326181994853038
1275,0.326821402659781
1276,0.327685428734143
1277,0.328638751168697
1278,0.329697551333386
1279,0.331016538812875
1280,0.332546167667303
1281,0.334008645620538
1282,0.335268214802596
1283,0.336438183323491
1284,0.337590252442448
1285,0.33865828450968
1286,0.339686457915026
1287,0.340840547405825
1288,0.342109996143192
1289,0.343307190160237
1290,0.344433201942968
1291,0.345729542959196
1292,0.347303297421305
1293,0.34900377767055
1294,0.350726191635029
1295,0.352512836139966
1296,0.354310154207107
1297,0.355950921282333
1298,0.357466968134794
1299,0.359107766761041
1300,0.360967826177273
1301,0.362895316179083
1302,0.364831960320166
1303,0.366906221840833
1304,0.369147067681967
1305,0.371424255770052
1306,0.373742357815799
1307,0.376260605669808
1308,0.378954332649123
