"Wave Length","Absorbance"
450,0.831730608661686
451,0.840687529415577
452,0.84768143999645
453,0.852241820717001
454,0.858089871012827
455,0.863344892815329
456,0.859331262290676
457,0.857783026553603
458,0.8567264580325
459,0.85732858940384
460,0.857186523651764
461,0.857674397175957
462,0.859964403407894
463,0.861935686865657
464,0.861400628052622
465,0.85990643239794
466,0.858774633968058
467,0.855583856582547
468,0.848523419651871
469,0.840889992376315
470,0.835594500620698
471,0.829250478240733
472,0.816856587770759
473,0.800417427541394
474,0.786117899653015
475,0.774392785523508
476,0.761904541901309
477,0.748233997135254
478,0.735010969108639
479,0.721907599983925
480,0.707639851000428
481,0.692863171675459
482,0.678677099531761
483,0.663925795251076
484,0.647167291394433
485,0.629810178538075
486,0.614086384481558
487,0.599596109370415
488,0.584878297922516
489,0.570266528356616
490,0.556826659913404
491,0.544135081188002
492,0.531324422028377
493,0.519245052676694
494,0.509076174254758
495,0.500021937821241
496,0.490920594370836
497,0.482473807102811
498,0.475968643086489
499,0.470956672683028
500,0.466139089311141
501,0.461561226559946
502,0.457811796279617
503,0.454034467430809
504,0.449262386359395
505,0.444412920760738
506,0.440912252876567
507,0.438632466191723
508,0.436585314540787
509,0.434860771165171
510,0.433928450836354
511,0.433047542409142
512,0.431178708220176
513,0.428616395161433
514,0.426226725510874
515,0.423678692851275
516,0.420183733084516
517,0.416263330836209
518,0.413075095020363
519,0.410331434777615
520,0.407118425129334
521,0.403987809836704
522,0.402087727784188
523,0.401342509263404
524,0.40092520033096
525,0.400652518280151
526,0.400635653553248
527,0.400335479412927
528,0.399518459382868
529,0.399139199550271
530,0.399919254672718
531,0.401227718628167
532,0.40208044613544
533,0.402500909214023
534,0.402913000438085
535,0.403002182409937
536,0.402486395821151
537,0.402081790578421
538,0.402364267566096
539,0.402571667857298
540,0.402036484235404
541,0.401572939805101
542,0.402155824251595
543,0.403269018576847
544,0.404045198691841
545,0.404861696833342
546,0.406286502479544
547,0.407491324771819
548,0.407475883381682
549,0.406895456874668
550,0.406923654505049
551,0.407450528365877
552,0.407917832404088
553,0.408846238559542
554,0.41090342913422
555,0.413482007942355
556,0.415663116837184
557,0.41776840282999
558,0.420375831671317
559,0.422771728112868
560,0.423987747409176
561,0.42445580843176
562,0.42504867108867
563,0.425462784372016
564,0.425244006954258
565,0.425282144260387
566,0.426573924423196
567,0.428452311336739
568,0.429731041585034
569,0.430659964114184
570,0.432061041417173
571,0.433468466996337
572,0.434074812504189
573,0.434470152700085
574,0.435599917079564
575,0.436995970720672
576,0.437613459421865
577,0.437851802208769
578,0.438800474065313
579,0.440233816586039
580,0.441196928248631
581,0.441793445172576
582,0.442690228160856
583,0.443600118048937
584,0.443963174832755
585,0.444433541673225
586,0.446129138715623
587,0.448879006435706
588,0.45168609179826
589,0.45427569424255
590,0.456849437543429
591,0.458898742550143
592,0.459884853704639
593,0.460584838276297
594,0.462140643088957
595,0.464366774880726
596,0.466474710864497
597,0.468568134030808
598,0.470972657201614
599,0.472898784092231
600,0.473251209676268
601,0.472346535412791
602,0.471215400147357
603,0.469800863898402
604,0.467436620856648
605,0.464397393584932
606,0.461396191691282
607,0.458067322065464
608,0.453567974221967
609,0.448295000686107
610,0.443341853788197
611,0.438677873082122
612,0.433739001932737
613,0.428991614729341
614,0.4253631890034
615,0.422832760802802
616,0.42126562620532
617,0.421904028962266
618,0.425977607854166
619,0.432024984929824
620,0.436596908648426
621,0.437824610987619
622,0.436780917659304
623,0.435192567996027
624,0.43305461534917
625,0.428633676884501
626,0.419947765771658
627,0.406553209954607
628,0.390585083332473
629,0.375672586332732
630,0.364222415418559
631,0.356027931631092
632,0.349966540232323
633,0.34589765393501
634,0.343961784349155
635,0.343252876517171
636,0.342680707994141
637,0.342467910725988
638,0.343365094144437
639,0.344998520124299
640,0.346675017400804
641,0.349264332324473
642,0.354120027044418
643,0.360248203687344
644,0.364311894952624
645,0.363478706384936
646,0.357391156543347
647,0.347907497804119
648,0.33800375552455
649,0.330534706982849
650,0.326404214764279
651,0.323953240479093
652,0.321445114716825
653,0.319215413811015
654,0.318145972094369
655,0.317586459268119
656,0.316358588426848
657,0.314878954252152
658,0.314210951734011
659,0.314176632134472
660,0.314162865780688
661,0.314455798004627
662,0.31509543770212
663,0.314858040730631
664,0.312251742621185
665,0.306339136026173
666,0.296954266718133
667,0.285035296477864
668,0.27720592011325
669,0.283080811808343
670,0.297044313333133
671,0.309903871485419
672,0.318690981324359
673,0.324052776481667
674,0.327498970558183
675,0.329992738709573
676,0.331992382066444
677,0.333638220700983
678,0.334645355191234
679,0.334784517416421
680,0.334245769561753
681,0.333393488349364
682,0.332265120007916
683,0.331201561830371
684,0.330919735541759
685,0.331745113018445
686,0.333477981128205
687,0.335909209021455
688,0.339059987212308
689,0.342838093714147
690,0.347071958750839
691,0.351838692500001
692,0.357340580958104
693,0.363798633053828
694,0.371448163673226
695,0.380580408802306
696,0.391571915509123
697,0.404449128369351
698,0.418730197391572
699,0.433593780212202
700,0.447865987056387
701,0.460066919523408
702,0.468478011858977
703,0.471752553124132
704,0.470050048329309
705,0.465513494735493
706,0.461721902406567
707,0.462423029093391
708,0.470355020362737
709,0.485992685910803
710,0.505450987454842
711,0.519558106733273
712,0.517318493332126
713,0.492934712625433
714,0.450785421184344
715,0.402814725258865
716,0.360664033447063
717,0.329989462215502
718,0.310444080495199
719,0.299077822127563
720,0.293077933667017
721,0.290450823873414
722,0.289855430246549
723,0.290510732288481
724,0.292013487349078
725,0.294020402271275
726,0.296111405471523
727,0.298029363820457
728,0.299851500551285
729,0.301713963529763
730,0.303530333958972
731,0.30512651515522
732,0.306526511939717
733,0.307802943770732
734,0.308889091225565
735,0.30985567483438
736,0.31100761387558
737,0.312487707561005
738,0.31403382122682
739,0.315312156727821
740,0.316262163160788
741,0.316941379924071
742,0.31726112826454
743,0.317119816756722
744,0.316662753852011
745,0.316184900543649
746,0.31587018605484
747,0.315811630896929
748,0.31616341099886
749,0.317036432106528
750,0.318320740462933
751,0.319823745359026
752,0.321526901317302
753,0.323500956602078
754,0.325624236339406
755,0.327628349944218
756,0.32941224879882
757,0.331085145818922
758,0.332731861630597
759,0.334378423892194
760,0.336155598886615
761,0.338250132047657
762,0.340672460215125
763,0.343291519252925
764,0.346119415717223
765,0.349341702674252
766,0.353059697292748
767,0.357241205406642
768,0.361938791346509
769,0.367230026382822
770,0.372790253894952
771,0.377784583993515
772,0.381429766404632
773,0.383611891290112
774,0.384863702626949
775,0.385875328985728
776,0.387124593775419
777,0.388786145934407
778,0.39077175519487
779,0.392863607937583
780,0.394897367220469
781,0.396797367494442
782,0.398450312122388
783,0.399676619818282
784,0.400365263995385
785,0.400528756486114
786,0.400208751259176
787,0.39945851734364
788,0.398428116463775
789,0.397292038036641
790,0.396073569727928
791,0.394701609747483
792,0.393241185693843
793,0.391857541761204
794,0.39052958575207
795,0.389052889359122
796,0.387378154863026
797,0.38570667494548
798,0.38418297381195
799,0.38273582017049
800,0.38130220373609
801,0.379992464114299
802,0.379002985538124
803,0.37856550470279
804,0.378894064867863
805,0.379791628267718
806,0.380320068381958
807,0.379359306641619
808,0.376722630103045
809,0.373385197392504
810,0.370467105007379
811,0.368322202969393
812,0.366739406207742
813,0.365561476094178
814,0.364746645896901
815,0.364132652992712
816,0.363508077010354
817,0.362809384700176
818,0.362061791178628
819,0.361323086717354
820,0.360837682286377
821,0.360983660179619
822,0.361900450617679
823,0.363452970859357
824,0.365737376086152
825,0.369174230798897
826,0.373622243924484
827,0.377607125987774
828,0.378955270295391
829,0.376322083441422
830,0.370107683272791
831,0.362152832482322
832,0.354692122794734
833,0.349262620075805
834,0.346165030975111
835,0.344861659106057
836,0.344837565676691
837,0.345906725859514
838,0.347859428041077
839,0.350326356947277
840,0.35318571492032
841,0.356683008574027
842,0.36100840062035
843,0.366186185832378
844,0.372480777475043
845,0.380111556301029
846,0.387945431821573
847,0.393185464134087
848,0.393538299741198
849,0.389886667406359
850,0.386032727537817
851,0.38552201661955
852,0.389215447233976
853,0.395742631224368
854,0.403462182706445
855,0.41162004745828
856,0.42018164981105
857,0.429357721577677
858,0.43941600864709
859,0.450566134631925
860,0.462913876317818
861,0.476528271210406
862,0.491494135384288
863,0.507875459008728
864,0.525708447178793
865,0.545143622501424
866,0.56643515243623
867,0.589656334104347
868,0.614293771905654
869,0.638879554309568
870,0.660734777118131
871,0.676302504122598
872,0.682525251156076
873,0.678246960707928
874,0.664316552770472
875,0.64238326386207
876,0.614136491439307
877,0.58152141861259
878,0.546792096229281
879,0.512284737001118
880,0.479983113140999
881,0.450772424232051
882,0.423700544233627
883,0.396430160767871
884,0.367291772174441
885,0.337106500394365
886,0.308987894681222
887,0.286395198096305
888,0.271328456531437
889,0.263678049013995
890,0.261734881769223
891,0.263280212488815
892,0.266473943694333
893,0.270266394186035
894,0.274207525938684
895,0.278080042196494
896,0.281738390645573
897,0.285098024028461
898,0.288106432164731
899,0.290661578936094
900,0.292658462496057
901,0.294131597830458
902,0.295298043558945
903,0.296456902977702
904,0.297878731670357
905,0.299745373348461
906,0.302097561077631
907,0.30484265906168
908,0.307873204959666
909,0.311171616028829
910,0.314768376121373
911,0.318648128423378
912,0.322739524771251
913,0.326963526685399
914,0.331211898853477
915,0.335305045784246
916,0.339049897429018
917,0.342344461710983
918,0.34518676105886
919,0.347621848581307
920,0.349735879609495
921,0.351619364874382
922,0.353264989594789
923,0.354567642271481
924,0.355514708179312
925,0.35631876280126
926,0.357269781237172
927,0.358531807540215
928,0.360157227756152
929,0.362180331242258
930,0.364579327459786
931,0.367286648054937
932,0.370377253183763
933,0.374078884171696
934,0.378313082162093
935,0.382277945305553
936,0.384824948438618
937,0.385407280710515
938,0.384521511581113
939,0.383197166616026
940,0.382219053711106
941,0.381829471281125
942,0.381915202164649
943,0.382285834420161
944,0.382847786259616
945,0.383640522256578
946,0.384731594586456
947,0.38609000511896
948,0.387597851627626
949,0.389173083225089
950,0.390803551596436
951,0.392488725727647
952,0.394234092684598
953,0.396080112456794
954,0.398053388324084
955,0.400104985262362
956,0.402192044831793
957,0.404385480801181
958,0.406782323956242
959,0.409337881813718
960,0.411904156282518
961,0.414415183478913
962,0.416911578799787
963,0.419416390945715
964,0.421967932851098
965,0.424763246214825
966,0.428036336582073
967,0.431665193527224
968,0.435026696361638
969,0.437398336231956
970,0.438527611373846
971,0.4388072150857
972,0.438978358244214
973,0.439653522730594
974,0.441005400106854
975,0.44283645078648
976,0.444900739608296
977,0.447114829830271
978,0.449466307543797
979,0.451889172868437
980,0.454365990574303
981,0.457041934279998
982,0.460061906597758
983,0.463321436514416
984,0.466556969944999
985,0.469659075020169
986,0.472736575380308
987,0.475899533948911
988,0.479145736592899
989,0.482466497217516
990,0.485904865853062
991,0.489509705988018
992,0.493393610140285
993,0.497783488785982
994,0.502810135208387
995,0.508256154189302
996,0.513714859010852
997,0.519068545615689
998,0.524606604106629
999,0.53065764837393
1000,0.53732564793694
1001,0.544586663653989
1002,0.552409009958635
1003,0.560669075333228
1004,0.569164429540817
1005,0.577810482094693
1006,0.586626832661981
1007,0.595481086414603
1008,0.604087617191936
1009,0.612343706700681
1010,0.620410061612875
1011,0.628369466033103
1012,0.636059697571407
1013,0.643346113569163
1014,0.650285041515785
1015,0.656916236218989
1016,0.663208650078072
1017,0.669323220722857
1018,0.675638922545449
1019,0.682414407720174
1020,0.689732279388814
1021,0.69782798977295
1022,0.707124871627563
1023,0.717865516883676
1024,0.730095354572388
1025,0.744070864011765
1026,0.759905231661189
1027,0.77617155800736
1028,0.789235288499408
1029,0.795032315157248
1030,0.792129255730006
1031,0.783252306215026
1032,0.773888260013388
1033,0.769138007154002
1034,0.771137646447754
1035,0.77873236193221
1036,0.789193094586819
1037,0.800117030985077
1038,0.810171441831554
1039,0.818844148025882
1040,0.826275283173104
1041,0.833132436485028
1042,0.840018794922478
1043,0.846914824428886
1044,0.853537563602054
1045,0.860030833465564
1046,0.86674250405535
1047,0.873486849358761
1048,0.879695220000554
1049,0.885323307168387
1050,0.890927379035524
1051,0.89680506724836
1052,0.90275685318843
1053,0.90875338214801
1054,0.915113803844849
1055,0.92187345400759
1056,0.92860458332966
1057,0.93496926855876
1058,0.94090467753246
1059,0.946257011669164
1060,0.950853267787093
1061,0.954980463510135
1062,0.959185905741109
1063,0.963515804858088
1064,0.967528683592666
1065,0.971016117428291
1066,0.974097965820525
1067,0.976716626174108
1068,0.978768230517055
1069,0.980719014431197
1070,0.983310461279023
1071,0.986607739826526
1072,0.990017386512873
1073,0.99319223371069
1074,0.996170608307276
1075,0.998657853467175
1076,1
1077,0.999992890722707
1078,0.99890176221613
1079,0.996680048340095
1080,0.993007534848869
1081,0.988118255381432
1082,0.982818073418767
1083,0.977572550411613
1084,0.972356709558427
1085,0.967347200876458
1086,0.962936447686129
1087,0.959062565998512
1088,0.955288429361604
1089,0.951573938986909
1090,0.948247048300121
1091,0.945230326173109
1092,0.942052876468017
1093,0.938672494157731
1094,0.935524347837399
1095,0.932695804040169
1096,0.929763500860036
1097,0.926514363881211
1098,0.923126778184626
1099,0.919574297387013
1100,0.915561100580135
1101,0.911066149700178
1102,0.906344937872459
1103,0.901325532672348
1104,0.895590969348322
1105,0.889097125590617
1106,0.882104360394495
1107,0.87454147888916
1108,0.866058438536592
1109,0.856680127075632
1110,0.846795180492122
1111,0.836498551991279
1112,0.825638254874407
1113,0.814445131864052
1114,0.803451097684598
1115,0.792847738377849
1116,0.782501554750398
1117,0.772546452408293
1118,0.763353061381996
1119,0.754955106015295
1120,0.747043413206332
1121,0.739494583158286
1122,0.732354732364235
1123,0.725351153966666
1124,0.717991392641233
1125,0.710134416205446
1126,0.701940281667285
1127,0.693332431186383
1128,0.684164090702667
1129,0.675004917722083
1130,0.667033190024717
1131,0.660851676736664
1132,0.65597549124921
1133,0.651606558050951
1134,0.647360482938245
1135,0.643134356581098
1136,0.63884902808203
1137,0.634575325328384
1138,0.630548927521788
1139,0.626862003456141
1140,0.623365100408172
1141,0.619988899170292
1142,0.61689965096577
1143,0.614223830884387
1144,0.611911415659602
1145,0.609956343914714
1146,0.608485377980464
1147,0.607515894535569
1148,0.6068446496446
1149,0.606297199466865
1150,0.605855083506342
1151,0.605443737075751
1152,0.604802690245358
1153,0.603659073714735
1154,0.601834940040907
1155,0.599185003901493
1156,0.595678201251861
1157,0.591553365813856
1158,0.587189889282458
1159,0.582783509914911
1160,0.578353460875331
1161,0.574018887010442
1162,0.569997228919183
1163,0.566344420543216
1164,0.562953917970763
1165,0.55982800936611
1166,0.557091723986608
1167,0.554715062060047
1168,0.552453625381491
1169,0.550125068307901
1170,0.547748771359981
1171,0.545390921534223
1172,0.543099738419221
1173,0.541014516052988
1174,0.539332316744411
1175,0.538094309060579
1176,0.537128319282155
1177,0.536202612170461
1178,0.53509016823503
1179,0.533560921695627
1180,0.531585804811444
1181,0.529549503197755
1182,0.527992035820692
1183,0.527094195381585
1184,0.526640193250445
1185,0.526459028936758
1186,0.526617313276439
1187,0.527220055001184
1188,0.528296072168088
1189,0.529952951106829
1190,0.532432232445125
1191,0.535866616062444
1192,0.540237127526959
1193,0.545604657846291
1194,0.552174963896108
1195,0.560100615974798
1196,0.569342877613962
1197,0.579855931376525
1198,0.59163734009141
1199,0.604409941590912
1200,0.617331897235488
1201,0.629086864742118
1202,0.638130034246299
1203,0.643107838856807
1204,0.643675338610171
1205,0.640843380927832
1206,0.636161441774902
1207,0.630368586557213
1208,0.623150591411732
1209,0.614112408782905
1210,0.603240850300352
1211,0.590615939466241
1212,0.576265218813904
1213,0.560481018527533
1214,0.543915934184298
1215,0.527189480223918
1216,0.510758021785467
1217,0.495130086374264
1218,0.480860845314231
1219,0.468243880243035
1220,0.457239748271204
1221,0.447690369062924
1222,0.439421061065147
1223,0.432149733132959
1224,0.425462386748376
1225,0.419066386207088
1226,0.412952829739708
1227,0.407247835526685
1228,0.402016302199856
1229,0.397209353173087
1230,0.392712088569241
1231,0.388362556197922
1232,0.38402461868442
1233,0.379734816156338
1234,0.375680390273548
1235,0.371986741629001
1236,0.368591944895492
1237,0.365392691773896
1238,0.362446366882061
1239,0.35990040738711
1240,0.357752179154323
1241,0.355774654152125
1242,0.353690987546539
1243,0.351368190274138
1244,0.348854964706661
1245,0.346321201923469
1246,0.343953039007476
1247,0.341823723177727
1248,0.339825839732515
1249,0.337748556806054
1250,0.335426352830097
1251,0.332809086130426
1252,0.329932484627414
1253,0.326882251156468
1254,0.323786424660421
1255,0.320762380390981
1256,0.317828833032585
1257,0.314903274733539
1258,0.311887218641893
1259,0.308712877581449
1260,0.305342406144147
1261,0.301839562181235
1262,0.298445866025989
1263,0.295488695735833
1264,0.293157122991686
1265,0.291421894595576
1266,0.29020204706138
1267,0.28947549842399
1268,0.28920780786421
1269,0.289271678599891
1270,0.289505120724736
1271,0.289794794764771
1272,0.290056565986757
1273,0.290258342693574
1274,0.290501817173803
1275,0.29095793417818
1276,0.291690432413797
1277,0.292634285952981
1278,0.293764235354794
1279,0.295122013803005
1280,0.296619509551791
1281,0.298011506732546
1282,0.299149731022889
1283,0.300116167866799
1284,0.301053704204853
1285,0.302028623203468
1286,0.303106566677758
1287,0.304353387976722
1288,0.305685551356912
1289,0.306914555875382
1290,0.308015826569221
1291,0.309171201470149
1292,0.310499778961246
1293,0.311953231117532
1294,0.313518378834674
1295,0.315277225760496
1296,0.317185878105492
1297,0.319019001629252
1298,0.320653864495275
1299,0.322218414556331
1300,0.323864589837737
1301,0.32561544860088
1302,0.327505108789375
1303,0.329622869093044
1304,0.33193330806267
1305,0.334268439960165
1306,0.336590114607631
1307,0.339026829863903
1308,0.341594182539017
