"Wave Length","Absorbance"
450,0.801217551736409
451,0.808533393276256
452,0.814517736642596
453,0.819453893542001
454,0.823828380475166
455,0.822807366435605
456,0.823435238966084
457,0.822320491264235
458,0.824653035160238
459,0.828295315684867
460,0.82956292112473
461,0.829750303887172
462,0.831689960043947
463,0.834172109458175
464,0.834466225228417
465,0.833085468816319
466,0.831696217925464
467,0.829179779460408
468,0.823582559591288
469,0.81608697178898
470,0.808458473561852
471,0.799058700525608
472,0.7859795401663
473,0.77200644164701
474,0.760702353749049
475,0.75028211784236
476,0.737658189958574
477,0.723579462833448
478,0.710293402256341
479,0.697412463522299
480,0.683368594650343
481,0.668718863360866
482,0.654822674208936
483,0.640918764827517
484,0.625539365926245
485,0.609557335625576
486,0.594883659706265
487,0.58150350950387
488,0.568404922814126
489,0.555663888606035
490,0.543639078397382
491,0.531573213434633
492,0.518904554200192
493,0.506944419981928
494,0.49712911391921
495,0.488742212211995
496,0.480531459831928
497,0.472908611712177
498,0.466847261828155
499,0.461862647298223
500,0.456902541589395
501,0.452373777127482
502,0.449257032091117
503,0.446910394171438
504,0.444146249058914
505,0.441386449567535
506,0.439643801699535
507,0.438536699623554
508,0.436920157574038
509,0.434961983216686
510,0.433544932242673
511,0.432380288846552
512,0.430444374446767
513,0.427563078236497
514,0.424252023709874
515,0.420397621185945
516,0.415690846004798
517,0.410855649969939
518,0.406953999291282
519,0.403736667578856
520,0.400494198050989
521,0.397787033471721
522,0.396512128936636
523,0.396335999513793
524,0.396369160108902
525,0.396571709766283
526,0.397246685958077
527,0.397833734572165
528,0.397820607638738
529,0.397934928666038
530,0.398895947504875
531,0.400202725076067
532,0.401062996693077
533,0.401759709617843
534,0.402914182819696
535,0.403998439434149
536,0.404059050640212
537,0.403354215685194
538,0.402867931858599
539,0.402677986196985
540,0.40241624332259
541,0.402474710636641
542,0.403327064925703
543,0.404339893391645
544,0.40478573280683
545,0.405303091183766
546,0.406828759370294
547,0.408752749943622
548,0.409820759004246
549,0.410242580406319
550,0.411073089353234
551,0.412333698790823
552,0.413437084338716
553,0.414777853170956
554,0.417153700479686
555,0.420198529983567
556,0.422906919471572
557,0.425294260665814
558,0.427937322577027
559,0.430398375624737
560,0.431784877439861
561,0.432372856116064
562,0.433059894641592
563,0.433728938599787
564,0.433858926568169
565,0.434090320350643
566,0.435473074980385
567,0.437652958984633
568,0.439460797836299
569,0.4408193735521
570,0.442457493510398
571,0.444182843846052
572,0.445287952452786
573,0.446132215801165
574,0.447544265037173
575,0.449232451586347
576,0.450231829383047
577,0.450714594407254
578,0.45161839883052
579,0.452896865557832
580,0.453873194591936
581,0.454789751458598
582,0.456326931430205
583,0.458049326515588
584,0.45902566652386
585,0.459527882160827
586,0.460638135845465
587,0.462469403218369
588,0.464301150183928
589,0.466080850072705
590,0.468373940580332
591,0.471001681829991
592,0.473178234209916
593,0.474899820703705
594,0.476788437041407
595,0.478798420843214
596,0.48049171452203
597,0.482111728336517
598,0.48399513224881
599,0.48542727130768
600,0.485411741400274
601,0.48429573086864
602,0.483097167597349
603,0.481663301363792
604,0.479105988426863
605,0.47553286087924
606,0.471784693569721
607,0.467785849226259
608,0.462778651027009
609,0.457023543028811
610,0.451575409514453
611,0.44651476366056
612,0.441221792162028
613,0.435953960383863
614,0.431703661042864
615,0.428878638741074
616,0.427641354229317
617,0.429079966837429
618,0.434075164839368
619,0.440891111319414
620,0.445814302081181
621,0.446753123482881
622,0.444839146655583
623,0.442099945661129
624,0.438704953700934
625,0.4328997295844
626,0.422812954770998
627,0.408283827042342
628,0.391509451236315
629,0.375861961538859
630,0.363622567671004
631,0.354783626671113
632,0.348284206336076
633,0.343700306258691
634,0.341061825552322
635,0.339819966470813
636,0.339186706971041
637,0.339183339577522
638,0.340257150089128
639,0.342140374879275
640,0.34441058964656
641,0.347895908839583
642,0.353709841798144
643,0.360680269152147
644,0.365193040698678
645,0.364051526847812
646,0.356910896084517
647,0.346169092531038
648,0.335306161935404
649,0.327146654650294
650,0.32239652606813
651,0.319545487907063
652,0.317023635546824
653,0.314896152094638
654,0.313724492436548
655,0.312978681869415
656,0.311743097175599
657,0.310321900053587
658,0.309537767233333
659,0.309262966271046
660,0.309011938424981
661,0.309023485461644
662,0.309415397635106
663,0.309180526218063
664,0.306802327760347
665,0.301248238601039
666,0.292755830540629
667,0.28331146099535
668,0.278838567201344
669,0.285556680866895
670,0.297466697097871
671,0.307367299757217
672,0.313756946799474
673,0.317794151318157
674,0.320785226748702
675,0.323243143256084
676,0.32526701730176
677,0.326888181544803
678,0.327897974314087
679,0.328134708234202
680,0.327726313224889
681,0.326927245868764
682,0.325844566475918
683,0.324940880742888
684,0.324926222632122
685,0.326020802056122
686,0.327944089323897
687,0.330512234548271
688,0.333852726921787
689,0.337994328317565
690,0.342802425906821
691,0.348307348905715
692,0.354692956794369
693,0.362187437030662
694,0.370978576128983
695,0.381214960685538
696,0.393106652238979
697,0.406695227157917
698,0.421693884352172
699,0.437373683935801
700,0.452318004602065
701,0.464562783486492
702,0.472070942184714
703,0.473593438008724
704,0.469673206682464
705,0.462906468968767
706,0.457225036266449
707,0.456491914746584
708,0.463251369533829
709,0.477603711710375
710,0.495476841536952
711,0.507944598968038
712,0.504574452872411
713,0.480168185610989
714,0.439359336717225
715,0.393689551802599
716,0.353912399434974
717,0.324940097375141
718,0.306280294233602
719,0.295280268646857
720,0.289411409715044
721,0.286745182956404
722,0.285930839076277
723,0.286272345427013
724,0.287487053001515
725,0.289256637521378
726,0.291120318550136
727,0.292801971398861
728,0.294372964222816
729,0.295937425491704
730,0.297374190543874
731,0.298507699544036
732,0.299386559297601
733,0.300160722796799
734,0.300897986647595
735,0.301748796161616
736,0.302968888967909
737,0.304611349874474
738,0.306396145760737
739,0.307995253930481
740,0.309254744092507
741,0.310058839911023
742,0.310219568344599
743,0.309692518735562
744,0.308782159188783
745,0.307969320887214
746,0.307589517725546
747,0.307756188924418
748,0.308463964534055
749,0.309610130204118
750,0.311000368636031
751,0.312499314492348
752,0.314152728573896
753,0.316050655650965
754,0.318116907777857
755,0.320165162004293
756,0.322123666837817
757,0.324052207229298
758,0.325972467038205
759,0.327856734988169
760,0.329770911227881
761,0.331879402697126
762,0.334286262863265
763,0.336983414697911
764,0.339963245680356
765,0.343266152954821
766,0.346930955285796
767,0.351031267113806
768,0.355738591386407
769,0.36112891338394
770,0.366820089930168
771,0.371964034128709
772,0.375780585909159
773,0.378123637249179
774,0.379502553214524
775,0.380636441033788
776,0.382031187041292
777,0.383825894535743
778,0.385861165991407
779,0.38787473199095
780,0.389698109084877
781,0.391278717725246
782,0.392556251749907
783,0.393429046481034
784,0.393853782225874
785,0.393855127212552
786,0.393400848112175
787,0.392414690226713
788,0.390990526610872
789,0.389431356340018
790,0.387968441426616
791,0.386562236386007
792,0.385070591634062
793,0.383477955100728
794,0.381829972772645
795,0.380080371421598
796,0.378164952985287
797,0.376152403532132
798,0.374191498668169
799,0.372375300396049
800,0.370753471758662
801,0.369412394858632
802,0.368495611228232
803,0.368188239396388
804,0.368599908819995
805,0.369434546567269
806,0.369803026839833
807,0.368727733030269
808,0.366058506338228
809,0.362691996908833
810,0.359736601273845
811,0.357634497299922
812,0.356181961147562
813,0.355080302856589
814,0.354162311789126
815,0.353290770550989
816,0.352376305907659
817,0.351484644409761
818,0.350748915388559
819,0.350253496095449
820,0.35013098378801
821,0.35061888230756
822,0.351878747779637
823,0.353937658727384
824,0.35697112934497
825,0.3612982662278
826,0.366601001911024
827,0.371203924185565
828,0.372671262921128
829,0.369465357591895
830,0.36210125108602
831,0.352814720847446
832,0.344198825742831
833,0.337916320960963
834,0.334252308215986
835,0.332630063897035
836,0.332439622309926
837,0.33332462019625
838,0.334947329822169
839,0.336946201967804
840,0.339291505985437
841,0.342325874925862
842,0.346329285082831
843,0.351365797438942
844,0.357601847488917
845,0.365062672788583
846,0.372530808453514
847,0.377354448389221
848,0.377483498317112
849,0.37390739011956
850,0.37030181332079
851,0.369963823859165
852,0.373588545633453
853,0.379857579834576
854,0.387335861876217
855,0.395402146853521
856,0.403943545033282
857,0.413010104648596
858,0.422840543818145
859,0.433753099005667
860,0.44592747514064
861,0.459407439952743
862,0.47425409095813
863,0.490570757246786
864,0.508438648822095
865,0.52801479671449
866,0.549536965344612
867,0.573029777884587
868,0.597893038298329
869,0.622625199242938
870,0.644642980607451
871,0.660491024174656
872,0.667031254387827
873,0.662874928488795
874,0.648714578822309
875,0.626253309627147
876,0.597395450371847
877,0.564353387528511
878,0.529581101212611
879,0.495432920203099
880,0.463731001095621
881,0.435174447093531
882,0.408734991720439
883,0.382086465085421
884,0.353597179993633
885,0.324178714507159
886,0.297056331731494
887,0.275644475858511
888,0.261647438023408
889,0.254614469421877
890,0.252732550748406
891,0.253939852354957
892,0.256628492276396
893,0.259933646706418
894,0.263535505497504
895,0.267253572793942
896,0.270841313155702
897,0.274073080305236
898,0.27687116473453
899,0.27922491551368
900,0.28111507102368
901,0.282603415458005
902,0.283896727811152
903,0.285225557366844
904,0.286729973294306
905,0.288512119051219
906,0.290684495629974
907,0.293287101787619
908,0.296251192786571
909,0.299516676256804
910,0.303101188440095
911,0.307004806516455
912,0.311126323164093
913,0.315344959617147
914,0.319582781869644
915,0.32372735634256
916,0.327595757588321
917,0.331050587053256
918,0.334064425039353
919,0.3366318698684
920,0.338743541281553
921,0.340476394866923
922,0.341981698042343
923,0.343329390033361
924,0.344494751674651
925,0.345544446791865
926,0.346699234723572
927,0.348161964566622
928,0.349998499841145
929,0.352212824851109
930,0.354814383413302
931,0.357828354025408
932,0.361362843988348
933,0.365584772705686
934,0.370326127275178
935,0.374677103799301
936,0.377341391351909
937,0.377680888294587
938,0.37628469689134
939,0.374415093274191
940,0.373062325558309
941,0.372557660439047
942,0.372765109526828
943,0.373358996711445
944,0.374047755236128
945,0.374778772871492
946,0.375734199787926
947,0.377060842650297
948,0.378682343017553
949,0.38043912095152
950,0.382270432165969
951,0.384170105532839
952,0.386103600954842
953,0.388073548744292
954,0.390155459115235
955,0.3923670841868
956,0.394628506984831
957,0.396924057199629
958,0.399354612300588
959,0.401944536441636
960,0.404552094489124
961,0.407076190810288
962,0.40959995693739
963,0.412241396668435
964,0.415056630168887
965,0.418188106481554
966,0.421847205470035
967,0.425897718439973
968,0.429604624550316
969,0.432090872725633
970,0.433083400349394
971,0.43310855823583
972,0.433044589822952
973,0.433561040692742
974,0.434849037656904
975,0.436705001931718
976,0.43883074305622
977,0.441107382870702
978,0.443581920832966
979,0.44626738798986
980,0.449107400764918
981,0.452119197892719
982,0.455382035563372
983,0.458818046626032
984,0.462178513990648
985,0.465320753275996
986,0.468330947014629
987,0.471324624074458
988,0.474320705562412
989,0.477398985915437
990,0.480776397786415
991,0.484613574546407
992,0.488912426250918
993,0.493652630609664
994,0.498816913793296
995,0.504213301559244
996,0.509518214940974
997,0.514672408929214
998,0.520016160923998
999,0.525914740842304
1000,0.532464425850479
1001,0.53963304845302
1002,0.547431399383463
1003,0.555765559631249
1004,0.564374944422153
1005,0.573107433941001
1006,0.582029522084165
1007,0.591126957535454
1008,0.600156097754622
1009,0.608946630606866
1010,0.617553978069211
1011,0.625955732350236
1012,0.633919129880638
1013,0.641364012212504
1014,0.648521301530774
1015,0.655542201421178
1016,0.662332759281269
1017,0.668970150812342
1018,0.675876632070354
1019,0.683357554098072
1020,0.691391954268771
1021,0.70009593770084
1022,0.709975492535236
1023,0.721493494050555
1024,0.734836149257458
1025,0.750261360851343
1026,0.767754561694302
1027,0.78549011794398
1028,0.799125524451023
1029,0.804016046553447
1030,0.798821668526978
1031,0.78700731465149
1032,0.77490238849108
1033,0.768153262836075
1034,0.769095846066426
1035,0.77645592634846
1036,0.787112726876732
1037,0.798220807382567
1038,0.808212510344717
1039,0.816539528242576
1040,0.823363182571309
1041,0.82944757980117
1042,0.835623068231512
1043,0.842057015817406
1044,0.848405771856385
1045,0.854632105139113
1046,0.861080947112696
1047,0.867748213917271
1048,0.874167410906741
1049,0.880192461388607
1050,0.886208441801703
1051,0.89239269655503
1052,0.898488939435325
1053,0.904506640312271
1054,0.910887020167375
1055,0.917722091098718
1056,0.924506807706493
1057,0.93086429413415
1058,0.936856086193466
1059,0.942425540427641
1060,0.947260925418445
1061,0.951432566632864
1062,0.955484566537491
1063,0.959648926145537
1064,0.96362408135461
1065,0.967252191639118
1066,0.970710132815868
1067,0.973943311891495
1068,0.976684239149879
1069,0.979195081673368
1070,0.982179855380047
1071,0.985780966398709
1072,0.989415567947579
1073,0.992707678070688
1074,0.99576162027771
1075,0.998378688360258
1076,0.999883347814191
1077,1
1078,0.999035066986164
1079,0.997050320812296
1080,0.993748630554603
1081,0.989309159596769
1082,0.984482899337768
1083,0.979627016964407
1084,0.97453415665151
1085,0.969314761061929
1086,0.96454964857625
1087,0.960438621333167
1088,0.956622410909741
1089,0.952972854447947
1090,0.949736794554039
1091,0.946793990437052
1092,0.943621334993556
1093,0.940165354289447
1094,0.936915373895975
1095,0.93396186319112
1096,0.930797966019776
1097,0.927213699831707
1098,0.923539570424297
1099,0.91981981368503
1100,0.91560652556602
1101,0.910738182148063
1102,0.905580193745627
1103,0.900253247201126
1104,0.894339711789297
1105,0.887681565973499
1106,0.880542135276258
1107,0.8729247694381
1108,0.864435616909814
1109,0.85498838785651
1110,0.844972328842988
1111,0.834554390691186
1112,0.823567730495284
1113,0.812199845620744
1114,0.801065015054176
1115,0.790485023284491
1116,0.780319204383369
1117,0.770584774434327
1118,0.76160020434588
1119,0.753427498079175
1120,0.745756582653408
1121,0.738440619171842
1122,0.731535621378071
1123,0.7247167831081
1124,0.717291478375903
1125,0.708977315159289
1126,0.700144047275068
1127,0.691190831201438
1128,0.682274469356435
1129,0.673789548904641
1130,0.666425220150888
1131,0.660418911969596
1132,0.655300216827976
1133,0.650570182706011
1134,0.646158799688933
1135,0.642072550327597
1136,0.638119985154055
1137,0.634205992598804
1138,0.630486016569475
1139,0.627038467570637
1140,0.623720157338277
1141,0.620519429959041
1142,0.617695054163214
1143,0.615384112628748
1144,0.613440234712906
1145,0.611793358948342
1146,0.610608384032986
1147,0.609929833070961
1148,0.609513022665046
1149,0.609192977277249
1150,0.609045484209661
1151,0.608986059752479
1152,0.608545588302576
1153,0.607272550862806
1154,0.605050786458709
1155,0.601907673695018
1156,0.597876919940839
1157,0.593192231824621
1158,0.588308449539116
1159,0.583531050939409
1160,0.578886505017024
1161,0.574433929849858
1162,0.570384165680221
1163,0.566808540515813
1164,0.56354331659656
1165,0.560508583116396
1166,0.557816765137184
1167,0.555451171051009
1168,0.55313214631668
1169,0.550666162483182
1170,0.548165042680965
1171,0.545793381058597
1172,0.543580861357276
1173,0.541585855966769
1174,0.539963023005709
1175,0.538714087933911
1176,0.537599758087451
1177,0.53642509929735
1178,0.535177987858265
1179,0.533822730858641
1180,0.532264173957203
1181,0.530628468563848
1182,0.529272379241272
1183,0.528364158866649
1184,0.52775948809448
1185,0.527403371725269
1186,0.527507371758567
1187,0.528234257840276
1188,0.529506268179089
1189,0.531295997961144
1190,0.53384811745842
1191,0.53738258392516
1192,0.541918011323992
1193,0.547518205596263
1194,0.554415225440387
1195,0.56274218629373
1196,0.572356151494691
1197,0.583175039226174
1198,0.595320841351316
1199,0.608588382587923
1200,0.621915799114935
1201,0.633626987028046
1202,0.64203234989615
1203,0.645928976691892
1204,0.645228279973213
1205,0.641171399689832
1206,0.635503002098615
1207,0.629062499929281
1208,0.62146579502081
1209,0.612153441818283
1210,0.601009140299827
1211,0.588099755934444
1212,0.573471717467315
1213,0.557474481521241
1214,0.540853875488377
1215,0.524255584641682
1216,0.508032726652387
1217,0.492581644940077
1218,0.478461707666774
1219,0.466017119852962
1220,0.455190300782008
1221,0.445777344226845
1222,0.437620641622488
1223,0.430478681260931
1224,0.42393628405253
1225,0.417704841924789
1226,0.411817417304746
1227,0.406383539972126
1228,0.401346352868828
1229,0.396578351465209
1230,0.392047314498288
1231,0.387711084409831
1232,0.383420676667262
1233,0.379117066171452
1234,0.374959879759626
1235,0.371117993428573
1236,0.367569243123457
1237,0.364256475757455
1238,0.36129152442028
1239,0.35878944931975
1240,0.356618154216172
1241,0.35450480325608
1242,0.352313194539877
1243,0.350061213240353
1244,0.347762393373345
1245,0.345441903454717
1246,0.343219448981345
1247,0.341180027794745
1248,0.339209121750207
1249,0.33709946770137
1250,0.334752591076476
1251,0.332155357700315
1252,0.3292772393374
1253,0.326147907826255
1254,0.322949597633546
1255,0.319858538762402
1256,0.316844159550291
1257,0.313768547775946
1258,0.310604898687459
1259,0.307400857741325
1260,0.304128211254848
1261,0.30079635691307
1262,0.297634601235011
1263,0.294940640975634
1264,0.292790351783908
1265,0.291085704230617
1266,0.289831998727016
1267,0.289127056219696
1268,0.288932714802624
1269,0.289066999108419
1270,0.289393909832582
1271,0.289833249066555
1272,0.290227521094781
1273,0.290459500150476
1274,0.290674646673763
1275,0.291145928299242
1276,0.291947311214428
1277,0.292953769045021
1278,0.294118148231198
1279,0.295493288676539
1280,0.296980825574166
1281,0.298338807464175
1282,0.299469933551573
1283,0.300464144648725
1284,0.30136891069891
1285,0.302178829827405
1286,0.303035275055661
1287,0.304146452159124
1288,0.305481089998486
1289,0.306816313150152
1290,0.30809436107734
1291,0.309456492982975
1292,0.310946146598053
1293,0.312474284642433
1294,0.314067031890578
1295,0.31584063525643
1296,0.31772706425255
1297,0.319516042813104
1298,0.321187091107445
1299,0.322914563281805
1300,0.324751108090226
1301,0.326604690178109
1302,0.328512627356874
1303,0.330615002456762
1304,0.332867776108508
1305,0.335101973130381
1306,0.337363609642742
1307,0.339854653390001
1308,0.342528852575609
