"Wave Length","Absorbance"
450,0.895249814183593
451,0.902248171708691
452,0.909464417238026
453,0.915203169948059
454,0.921112427276235
455,0.916955957127719
456,0.916322269063978
457,0.914065588460518
458,0.916670738238847
459,0.921522393331995
460,0.922877030544325
461,0.922929374831088
462,0.925991576756624
463,0.930449434311958
464,0.932304079409183
465,0.932381774422113
466,0.933163107364183
467,0.932814563283923
468,0.927882401317416
469,0.919539603067649
470,0.910493218893015
471,0.8989618626074
472,0.882508800945344
473,0.864888135149115
474,0.851120347510846
475,0.839306167747034
476,0.826023075201212
477,0.812446968441825
478,0.800489230811356
479,0.78794407304176
480,0.772264814289045
481,0.755200907365825
482,0.739306721673758
483,0.723406317543255
484,0.70573719351807
485,0.688317603244223
486,0.673597326093469
487,0.660032609521698
488,0.645298200318191
489,0.630236282148003
490,0.616452271576337
491,0.602920323851358
492,0.588209223575694
493,0.573915561078407
494,0.562171037253907
495,0.551873267862622
496,0.541343971891323
497,0.531754730497063
498,0.52490900050021
499,0.519802485248015
500,0.514434517820155
501,0.509309169400958
502,0.505816636288077
503,0.502698934096119
504,0.498165652595791
505,0.493274280444724
506,0.489878048645947
507,0.487564059550058
508,0.48496451226244
509,0.482769288447042
510,0.482144352814391
511,0.481968463644584
512,0.480416106413306
513,0.477616133605607
514,0.474674445264387
515,0.47120147797133
516,0.466549914611243
517,0.462062512983984
518,0.459287324807198
519,0.456886938868112
520,0.452993701571103
521,0.448902040939905
522,0.446883677850899
523,0.446713589909037
524,0.446805371552757
525,0.447008668466382
526,0.44794212786602
527,0.448833341969457
528,0.44885198876444
529,0.449005410026938
530,0.450065820232993
531,0.450909552402732
532,0.450549736308212
533,0.450152629056584
534,0.451003924817153
535,0.451957461387121
536,0.451339285605043
537,0.449856155461079
538,0.449145243522901
539,0.448741908700293
540,0.447533416096795
541,0.446367850569504
542,0.446626812698844
543,0.447608477004049
544,0.448051378940355
545,0.448667872364247
546,0.450491322697228
547,0.452221736072869
548,0.452232659483881
549,0.451712659836072
550,0.452592362671485
551,0.454152447933204
552,0.454586623617775
553,0.454534144245346
554,0.455937265532668
555,0.458747258823013
556,0.461403161808246
557,0.463630426519246
558,0.466080865141244
559,0.46820363045321
560,0.469133645300937
561,0.469673124947351
562,0.470958137080009
563,0.472293111575025
564,0.472752841981538
565,0.473330390587256
566,0.475032260755889
567,0.47641808803416
568,0.475924825934702
569,0.474995703519128
570,0.475909864475847
571,0.477982995403753
572,0.479125310203979
573,0.479521391348512
574,0.480529450777271
575,0.481657529715511
576,0.481434191441073
577,0.480562565207575
578,0.480863744905793
579,0.482094885759078
580,0.482841052162443
581,0.48336360922343
582,0.484761335360201
583,0.486359597636511
584,0.486850293820828
585,0.486935590883132
586,0.488364018344215
587,0.491062174964158
588,0.493712540967551
589,0.496146790015335
590,0.498907483173647
591,0.501231839969757
592,0.502096625293618
593,0.50256087809623
594,0.504353967612602
595,0.507068606980825
596,0.509285342853379
597,0.511205982618335
598,0.513711202729895
599,0.515970823895114
600,0.516421506549851
601,0.515525499433922
602,0.51482895017598
603,0.514011582111118
604,0.511612968906341
605,0.507858286469049
606,0.504229265179361
607,0.500689351402188
608,0.495930745916321
609,0.490144069683575
610,0.484900612529299
611,0.48036821710761
612,0.475615984918178
613,0.470728531239387
614,0.46642049736925
615,0.46242203651292
616,0.458739901357625
617,0.457655044604499
618,0.461451343815002
619,0.468338634621397
620,0.473624710157806
621,0.475027558728765
622,0.474232268038044
623,0.473198319460744
624,0.471277247444203
625,0.466323506663105
626,0.456786698435129
627,0.442765045484215
628,0.426452097974823
629,0.41136713350096
630,0.399830863303218
631,0.391225543514162
632,0.38415381566621
633,0.378999687692446
634,0.376666123636202
635,0.376156957396227
636,0.375585715949337
637,0.374859423183668
638,0.375168810254319
639,0.376442947498055
640,0.377907643321033
641,0.380558427917719
642,0.385907032234599
643,0.392562698809036
644,0.396695930970111
645,0.39565173922649
646,0.389471600180669
647,0.379758726655573
648,0.368943419431456
649,0.360269093663914
650,0.355669317086984
651,0.353598518618813
652,0.351546693387211
653,0.349489200168926
654,0.348428691101209
655,0.347541149760157
656,0.34538675634774
657,0.34302365997969
658,0.342413891795311
659,0.343218003872707
660,0.343927123131213
661,0.344598088598435
662,0.345359161896663
663,0.344591036750595
664,0.339988466944208
665,0.330878910667223
666,0.318152891587708
667,0.303595078195462
668,0.293816364371052
669,0.301592947212295
670,0.318899985573978
671,0.334075510648196
672,0.344067811610672
673,0.350326783955324
674,0.354346606506852
675,0.356956330284772
676,0.358832873933175
677,0.360574208992838
678,0.361901311682479
679,0.362272139311728
680,0.361700750184435
681,0.360680420233854
682,0.359331868889748
683,0.358134010265095
684,0.357887200892762
685,0.358773955522499
686,0.360531271719796
687,0.363190094632847
688,0.366898840794775
689,0.371141359460959
690,0.375270927836978
691,0.379510489758109
692,0.384476897225802
693,0.390535979391613
694,0.397788382021133
695,0.406449508384528
696,0.417069190027651
697,0.429785056989467
698,0.444128203874338
699,0.459344194303611
700,0.474217685863289
701,0.48701798124583
702,0.495636060682942
703,0.498481666369733
704,0.495842816447758
705,0.490130378731752
706,0.485193724579967
707,0.485008448176755
708,0.492383649625778
709,0.507652022563887
710,0.526684452591481
711,0.540334762683574
712,0.538126022262021
713,0.514668812819239
714,0.474075648662027
715,0.427706825103025
716,0.386923342847087
717,0.357429370391858
718,0.338935813935471
719,0.328495363988091
720,0.323315116123002
721,0.321375554885053
722,0.32122496397954
723,0.322073547771965
724,0.323697900269297
725,0.325892420776303
726,0.328121221609211
727,0.329950286296006
728,0.331550497419637
729,0.333319177216996
730,0.335192913992235
731,0.336704735046662
732,0.3377005131018
733,0.338409279391857
734,0.339035019162792
735,0.339847619873382
736,0.34121413051833
737,0.343176098818498
738,0.345228670144357
739,0.346785658572678
740,0.347656110129669
741,0.347920023297975
742,0.347634540850204
743,0.346917787438741
744,0.346087473020707
745,0.345433635031314
746,0.345007123243239
747,0.344852366068009
748,0.345216334063423
749,0.346231501520434
750,0.347616074853296
751,0.349025115022883
752,0.350548237766941
753,0.352491190593431
754,0.354761619278476
755,0.356882187945984
756,0.358587025474754
757,0.360020525546467
758,0.361382845576732
759,0.362800206380438
760,0.364510388707397
761,0.366752205117746
762,0.369401671388237
763,0.372079830795043
764,0.37470979532641
765,0.377644919225218
766,0.381198627772978
767,0.385395958027909
768,0.390241680459106
769,0.395775763691048
770,0.401624740227561
771,0.406830569414809
772,0.410457843696244
773,0.412327690112858
774,0.413063018966343
775,0.413567528352452
776,0.414519514419569
777,0.416098424772296
778,0.418003107636043
779,0.419825239244095
780,0.421459797472165
781,0.423041853063288
782,0.424562701996991
783,0.425802616591821
784,0.42661770409653
785,0.427002133615539
786,0.426866912872572
787,0.426080678668767
788,0.424779848154301
789,0.423319322727383
790,0.421885069316396
791,0.420466062067625
792,0.419179663764486
793,0.418204543928946
794,0.417331390970033
795,0.416043115713737
796,0.414173419451041
797,0.412097326020768
798,0.410162696466343
799,0.408363551041122
800,0.406689787323522
801,0.405342780056033
802,0.404478870632749
803,0.404145509373181
804,0.404476558221855
805,0.405353093232943
806,0.405799456424425
807,0.404464414531673
808,0.401109501709707
809,0.39706714845028
810,0.393867004756739
811,0.391875455441781
812,0.390585350208974
813,0.389648031255347
814,0.389051084174006
815,0.388680095311095
816,0.388278563004459
817,0.387719397317922
818,0.386991924349876
819,0.386149102885752
820,0.385517948453943
821,0.38562526816339
822,0.3866284963681
823,0.388190010537516
824,0.39022066770225
825,0.393225768063869
826,0.397287591264438
827,0.400986066602402
828,0.402037309287109
829,0.399075676743131
830,0.392644907041196
831,0.384708105353806
832,0.377456346187001
833,0.372269305370165
834,0.369301592026319
835,0.367955874302414
836,0.367754025815655
837,0.368585241311397
838,0.370280844670997
839,0.372474029504462
840,0.37506462687644
841,0.378328098524889
842,0.382414543414744
843,0.387227016707498
844,0.392920500236032
845,0.399706274269987
846,0.406594993741717
847,0.411117831757167
848,0.411353582134376
849,0.408219473881465
850,0.405014558471953
851,0.404633127937799
852,0.407744355392823
853,0.413326968709859
854,0.4201349165509
855,0.427507529776256
856,0.435391960536283
857,0.44408439341092
858,0.453875487617339
859,0.464754575377278
860,0.476597306459847
861,0.48953757212214
862,0.50391231545117
863,0.519904762378789
864,0.537462259646157
865,0.556615583778722
866,0.577560664969079
867,0.600360152643121
868,0.624562231165365
869,0.648835961618049
870,0.670642330567932
871,0.686530702463524
872,0.693574126912226
873,0.690679873534316
874,0.678493536550656
875,0.658286770592292
876,0.631606749011902
877,0.60062571023506
878,0.567734208850505
879,0.534932469525846
880,0.503722015956909
881,0.474949919636563
882,0.448087226562884
883,0.421182662931227
884,0.392665192971239
885,0.363322185531168
886,0.336204615476265
887,0.314562810121625
888,0.300114612329497
889,0.29271832720666
890,0.290962151747915
891,0.292886200375271
892,0.296529725626069
893,0.300524772192585
894,0.304334083319653
895,0.307994639459873
896,0.311669015088488
897,0.315344516985186
898,0.31879751417972
899,0.32169332191476
900,0.323780376522235
901,0.325078979709328
902,0.325903850868127
903,0.326714476457794
904,0.327917094147567
905,0.329724955510361
906,0.332100510450477
907,0.334844702631005
908,0.337787413730248
909,0.34088677529974
910,0.344161502429399
911,0.347620893789667
912,0.351269581943657
913,0.355096560746538
914,0.359001879540281
915,0.362804310033807
916,0.366353436146581
917,0.369571701510945
918,0.372391778785541
919,0.37477145798298
920,0.376786671172884
921,0.378536521659603
922,0.379935098198339
923,0.380783984124757
924,0.381117789792628
925,0.381308640599794
926,0.38173792485783
927,0.382557964889402
928,0.383807360932453
929,0.385506686166255
930,0.387560606209433
931,0.389899097429635
932,0.392835217728019
933,0.396901180723474
934,0.401976737631545
935,0.406791021352298
936,0.40971869968862
937,0.410115021217507
938,0.408713630118291
939,0.40688141029585
940,0.405701739588146
941,0.405550802955349
942,0.406137872687165
943,0.406871479113888
944,0.407389681443094
945,0.407822124594158
946,0.40850992816403
947,0.40960543222851
948,0.411030316721301
949,0.412652783723572
950,0.414326446834582
951,0.415910202496485
952,0.417429456721817
953,0.41908166225939
954,0.420925777102739
955,0.422742191974656
956,0.4244079242632
957,0.426203089921626
958,0.428475132344266
959,0.431131078802596
960,0.433760142086765
961,0.436156712083419
962,0.438440016416911
963,0.440741571245858
964,0.443102202015482
965,0.445650221973926
966,0.448542944994018
967,0.451624848245448
968,0.454360913208571
969,0.456235042733206
970,0.457175323746603
971,0.457624013393951
972,0.458272655993302
973,0.459594987138485
974,0.461475864480187
975,0.463399480405663
976,0.465090111884189
977,0.466808729976224
978,0.46885837303691
979,0.471078600266282
980,0.473163336149305
981,0.475282031699368
982,0.477990510047833
983,0.481502752144837
984,0.485393613546388
985,0.489049573900217
986,0.492152855204754
987,0.494727783689859
988,0.497010794179541
989,0.499389829888483
990,0.502232769145297
991,0.505622293247734
992,0.509303207794015
993,0.5129155529395
994,0.51625953526226
995,0.519499966541245
996,0.523236435161461
997,0.528231814460291
998,0.534762275556516
999,0.542288684891652
1000,0.549959362512101
1001,0.55737875378607
1002,0.564741914677189
1003,0.57232070581708
1004,0.580138046938307
1005,0.588096468557777
1006,0.596123328384433
1007,0.604165534567433
1008,0.612240961500055
1009,0.620462991502674
1010,0.628808857608168
1011,0.636954638418652
1012,0.644534463299555
1013,0.651427305633604
1014,0.657615063440139
1015,0.663069706728865
1016,0.668157866230538
1017,0.673774926567661
1018,0.680521054797988
1019,0.688016758802315
1020,0.69562772504368
1021,0.703603528892023
1022,0.712823809930947
1023,0.723707869277812
1024,0.736192715479971
1025,0.750595200300273
1026,0.767113368987559
1027,0.783937423813517
1028,0.796805090635901
1029,0.801616259435276
1030,0.797644636193369
1031,0.788240852803427
1032,0.77887087808257
1033,0.774337231020953
1034,0.776729352578369
1035,0.785014884875555
1036,0.796403256713367
1037,0.808191562217109
1038,0.818729685071815
1039,0.827291057332997
1040,0.834002252039119
1041,0.839827540906727
1042,0.845883204157785
1043,0.852470044047385
1044,0.859170218181231
1045,0.865740253012562
1046,0.872280120936474
1047,0.87861098536386
1048,0.884309352897873
1049,0.889526144658328
1050,0.894995461346074
1051,0.901015972889429
1052,0.907152143522981
1053,0.913132865734216
1054,0.919297147428292
1055,0.925858358444981
1056,0.932394607176899
1057,0.938324044210279
1058,0.943366371970314
1059,0.947432746960272
1060,0.950664197470284
1061,0.953742072669893
1062,0.957575085634662
1063,0.962392440897733
1064,0.96753142329822
1065,0.972168270827925
1066,0.97587248759924
1067,0.978549495719476
1068,0.980423293785895
1069,0.982115802935728
1070,0.984214364075201
1071,0.986717356982642
1072,0.989281075635281
1073,0.991827550596213
1074,0.994441672086534
1075,0.996908713572569
1076,0.998838172465121
1077,1
1078,0.999966541853344
1079,0.997935619355924
1080,0.993688784716973
1081,0.98826592835946
1082,0.982881358225602
1083,0.977574742676718
1084,0.971878624983712
1085,0.966212541861348
1086,0.961508373845457
1087,0.957828720447801
1088,0.954475048695302
1089,0.951216185562818
1090,0.948318669704234
1091,0.945566799027258
1092,0.942381913207008
1093,0.938881673156984
1094,0.93572517197631
1095,0.932932629975788
1096,0.929870022611072
1097,0.926413943249653
1098,0.923106739922491
1099,0.92011880460957
1100,0.917008586129592
1101,0.913510545350055
1102,0.909619308336103
1103,0.904981629073794
1104,0.898975412548327
1105,0.891796531363923
1106,0.884252583363561
1107,0.876565361487563
1108,0.868249658535845
1109,0.859117102220901
1110,0.849490515140672
1111,0.839350426244549
1112,0.828358270965894
1113,0.816857501294209
1114,0.805850969066799
1115,0.795794915871152
1116,0.786232474026778
1117,0.776794889257354
1118,0.767732643249617
1119,0.759253733673257
1120,0.75109017396707
1121,0.743076372701874
1122,0.735497307912972
1123,0.728519452001283
1124,0.721764864355468
1125,0.714712121716122
1126,0.707103469545351
1127,0.698816649743763
1128,0.689869535261491
1129,0.680838943267299
1130,0.672756574795506
1131,0.666217231096359
1132,0.660957471279419
1133,0.656424058708176
1134,0.652310451356953
1135,0.648406114207481
1136,0.644423713239368
1137,0.640239051849881
1138,0.636009312730006
1139,0.631912385455934
1140,0.628008461406751
1141,0.62447563469522
1142,0.621663153267561
1143,0.619688500093796
1144,0.618186615708336
1145,0.616620802019541
1146,0.614747151930481
1147,0.61274219226018
1148,0.610997518106019
1149,0.609818832785812
1150,0.609133501680549
1151,0.60847408306507
1152,0.607349467552128
1153,0.605584489960746
1154,0.603161948064033
1155,0.59997720234017
1156,0.596057941615006
1157,0.59180923421726
1158,0.58765682385197
1159,0.58353200030642
1160,0.579142004078669
1161,0.574663705314732
1162,0.570693459004989
1163,0.56748130570493
1164,0.564649890722301
1165,0.561776836499011
1166,0.558870522920849
1167,0.556128488884747
1168,0.553558049921986
1169,0.551047504080869
1170,0.5485678716976
1171,0.546137189236239
1172,0.543771522807973
1173,0.541571479422309
1174,0.539704558398194
1175,0.538212280485436
1176,0.53694636450175
1177,0.535718027624155
1178,0.534370045494553
1179,0.532758515791839
1180,0.530892646302665
1181,0.529081501683546
1182,0.527684685175117
1183,0.526692273174819
1184,0.525801915984384
1185,0.524914177224818
1186,0.524281786653718
1187,0.524199210857506
1188,0.52478639941182
1189,0.526112720858062
1190,0.528296070346412
1191,0.531338521190527
1192,0.535156394774185
1193,0.539828142224156
1194,0.545574645256633
1195,0.552489071188962
1196,0.560462522072341
1197,0.569543018173949
1198,0.579995485088839
1199,0.591748518312192
1200,0.603887662235351
1201,0.614868221941407
1202,0.623104678255404
1203,0.627468657053619
1204,0.627823790332405
1205,0.62515470689452
1206,0.620913155618769
1207,0.615897579524033
1208,0.609865332060944
1209,0.602219868129399
1210,0.592574599559591
1211,0.580905656218745
1212,0.567542436169663
1213,0.553097221709975
1214,0.538155964329664
1215,0.522982454613499
1216,0.507807991126227
1217,0.493246541532057
1218,0.480104220730533
1219,0.468784046204453
1220,0.459141642031261
1221,0.450825379944603
1222,0.443529747449552
1223,0.436962873353336
1224,0.430789101937833
1225,0.424832357135157
1226,0.41920518549679
1227,0.414120604049802
1228,0.40958267937399
1229,0.405275168722137
1230,0.4007805647291
1231,0.395916936414214
1232,0.390878044089369
1233,0.386049374900856
1234,0.381678742395329
1235,0.377769237877828
1236,0.374237265579082
1237,0.371045491522067
1238,0.368189501802057
1239,0.365662709900617
1240,0.363476515954005
1241,0.361580145655723
1242,0.359717716366663
1243,0.357536143138913
1244,0.354941842245961
1245,0.352261846118101
1246,0.349907543081858
1247,0.347954333830664
1248,0.346155705497849
1249,0.344250390986114
1250,0.342100674138686
1251,0.339622010505264
1252,0.336799270217322
1253,0.333762178223162
1254,0.330696733881038
1255,0.32766651397675
1256,0.324610113686676
1257,0.321497125607897
1258,0.318379995427878
1259,0.315281829569793
1260,0.312147796357218
1261,0.308978539156033
1262,0.305921629009312
1263,0.30317047089521
1264,0.300842436295088
1265,0.298981491096086
1266,0.297645804399999
1267,0.296899888801413
1268,0.296729387684359
1269,0.296977930285164
1270,0.297365367577416
1271,0.297601434499202
1272,0.297557310122849
1273,0.297367672149621
1274,0.29730026731251
1275,0.297513429351032
1276,0.297995796077881
1277,0.298704864617586
1278,0.29966478208886
1279,0.300856919089421
1280,0.302092819698171
1281,0.303139492437759
1282,0.303964111770864
1283,0.304737260563941
1284,0.305613402885489
1285,0.306617179649453
1286,0.307721410259934
1287,0.30888650178609
1288,0.310021337428681
1289,0.311070809050006
1290,0.31213150447738
1291,0.313357500730082
1292,0.314778096966118
1293,0.316310027730134
1294,0.317912815577352
1295,0.3195906752014
1296,0.321266665380119
1297,0.322805789472078
1298,0.324168088091912
1299,0.325421718260071
1300,0.326651696177416
1301,0.327970467145479
1302,0.329559083308974
1303,0.331511812401293
1304,0.33368180621444
1305,0.335855779746332
1306,0.338039819399552
1307,0.340388363491266
1308,0.342886394750509
