"Wave Length","Absorbance"
450,0.903210801741125
451,0.909398714074745
452,0.912110166457741
453,0.914462679455674
454,0.920930322166655
455,0.928510530249563
456,0.931583660881065
457,0.930322740934559
458,0.928919643219338
459,0.927553994086341
460,0.924440534978246
461,0.921728157633077
462,0.921812933845118
463,0.922679656973111
464,0.921288400634539
465,0.918377176530769
466,0.915208196828749
467,0.909910605726946
468,0.901378925587383
469,0.893075803186594
470,0.88717739218715
471,0.879371541458946
472,0.864778350298149
473,0.846496974475483
474,0.830988957892495
475,0.8177782723061
476,0.803246625275265
477,0.787760072777475
478,0.773386475720228
479,0.759168049792007
480,0.74330973481655
481,0.726936125987113
482,0.71167470877224
483,0.696030107253096
484,0.678042201718189
485,0.659283424847757
486,0.642438938029751
487,0.62726768734962
488,0.612462382746373
489,0.598550436706413
490,0.586163851126715
491,0.573746990562817
492,0.559789438014495
493,0.54582728549414
494,0.534065270375227
495,0.523801405549665
496,0.513477821332537
497,0.503723205968974
498,0.495848956246364
499,0.489106430377443
500,0.482064720660877
501,0.475437857940974
502,0.470762584934548
503,0.467294030689126
504,0.463412992447447
505,0.459497566971468
506,0.456672112162545
507,0.454471586134996
508,0.451910494645418
509,0.449692450024908
510,0.44865653067889
511,0.447638340617655
512,0.445113553743794
513,0.44159259541794
514,0.438465694206537
515,0.435418355870323
516,0.43139308063193
517,0.427015867996019
518,0.423775241995779
519,0.421280817500336
520,0.418287805735669
521,0.415398686728048
522,0.413946269874457
523,0.413727139319341
524,0.413768325502441
525,0.414090156646342
526,0.414917307380081
527,0.415245358802752
528,0.414459603204993
529,0.413854543424963
530,0.414559584811002
531,0.415875654020746
532,0.416668104947191
533,0.417206328444294
534,0.418184914027953
535,0.418968709558858
536,0.418708870347163
537,0.418096958997077
538,0.418130183833168
539,0.418153197301616
540,0.417309296061173
541,0.416379812615
542,0.41635931694621
543,0.41652677180043
544,0.416027325818745
545,0.415895644742819
546,0.417338435619465
547,0.419240476404444
548,0.419781796947972
549,0.419369573958201
550,0.419511354261701
551,0.420194718753386
552,0.420599208436976
553,0.421182753669355
554,0.422806527176575
555,0.424908862742516
556,0.426504925272928
557,0.42810439026822
558,0.430577247607878
559,0.433153792501148
560,0.434529273702804
561,0.43494921991789
562,0.435303346812256
563,0.435282377177307
564,0.43450793563446
565,0.434128082103865
566,0.43523609877823
567,0.436885697228552
568,0.437676692033442
569,0.438017874193042
570,0.438852086001308
571,0.439462877522778
572,0.438944058610017
573,0.438323119653812
574,0.438933143257968
575,0.440139953351922
576,0.440561186677418
577,0.44065155912721
578,0.441625974400055
579,0.442974479942654
580,0.443462471821399
581,0.443484915704227
582,0.444131004121481
583,0.444945534188341
584,0.44491417177793
585,0.444662637251342
586,0.445635060064472
587,0.447753970015145
588,0.449911972432917
589,0.451910255320464
590,0.45408490625272
591,0.455698701214531
592,0.4558565227497
593,0.455465185776566
594,0.456150151295845
595,0.457893125098311
596,0.459675661721839
597,0.461418859199298
598,0.463438147041957
599,0.464939910578632
600,0.464897067602034
601,0.463917707128924
602,0.463232051433403
603,0.462497611088109
604,0.460554887733552
605,0.457568529346317
606,0.454576862941036
607,0.451456331508244
608,0.447304117354859
609,0.442468806390661
610,0.438118063109467
611,0.434110269597427
612,0.42964546267779
613,0.425169035603564
614,0.421779772327028
615,0.419435637225438
616,0.417707674601568
617,0.417655539619001
618,0.420684124839775
619,0.425725900187839
620,0.429727712776587
621,0.431027228204222
622,0.430462780587778
623,0.4291459804666
624,0.426726248373001
625,0.421903610986033
626,0.413399383589932
627,0.400844454987468
628,0.385830897892448
629,0.371661130216592
630,0.36091236101254
631,0.353476081139751
632,0.348019714195355
633,0.34423310535583
634,0.342327230015739
635,0.341514311946745
636,0.340769862127057
637,0.340442197259183
638,0.341386579554936
639,0.343080162196997
640,0.34453359143916
641,0.346533964438662
642,0.350557879705465
643,0.355743855875048
644,0.359005740465822
645,0.357898565317237
646,0.352182249851544
647,0.343330913920676
648,0.333858690260776
649,0.326682347887369
650,0.323086401208792
651,0.32139631437051
652,0.319504168474257
653,0.31759290700159
654,0.316650325701548
655,0.316071549056195
656,0.314738034418439
657,0.313381505739471
658,0.313230823321966
659,0.313757152565015
660,0.313950897221852
661,0.314071567975485
662,0.314223422255437
663,0.312987708264138
664,0.308416415499132
665,0.298985323487198
666,0.284483709930406
667,0.267362365790261
668,0.257512389450702
669,0.266637375804729
670,0.28601667697047
671,0.302977388917241
672,0.313536425650664
673,0.319169248449675
674,0.322492526640282
675,0.324888093687502
676,0.3267561780778
677,0.328261290302879
678,0.329154036230288
679,0.32919515111701
680,0.328659233252168
681,0.328022446014521
682,0.327255620272854
683,0.326560797671525
684,0.326469704019754
685,0.327067203106093
686,0.328121313859463
687,0.329746048628011
688,0.332326734653499
689,0.335754847964165
690,0.33958840046547
691,0.343822785781484
692,0.348798347389406
693,0.354834809367714
694,0.362043869214723
695,0.370449391341168
696,0.380273856217166
697,0.39157148729422
698,0.404056551546682
699,0.417195704937562
700,0.430020702052248
701,0.44113167406229
702,0.448762407305759
703,0.451436874869335
704,0.449205095255539
705,0.444114297825681
706,0.439621429925725
707,0.439247465599697
708,0.445417965574422
709,0.458538677936942
710,0.475317604766526
711,0.487904053606748
712,0.486738976450979
713,0.466454900883866
714,0.430354359916666
715,0.388613998957177
716,0.351582019672157
717,0.324514583593454
718,0.307298272930745
719,0.29745330618502
720,0.292555686588287
721,0.290739209663981
722,0.29060002503335
723,0.291329534333634
724,0.292662267269757
725,0.294488265114201
726,0.296548991891971
727,0.298598299213522
728,0.300620214611577
729,0.30262286869514
730,0.304426741030954
731,0.305884462728024
732,0.307195598357008
733,0.308601203700781
734,0.310022448114242
735,0.311379541375421
736,0.312813476949867
737,0.314361211365958
738,0.315750423795254
739,0.316731664693921
740,0.317326798321727
741,0.317578685725037
742,0.31736910066661
743,0.316722992493978
744,0.316023536506253
745,0.315642414772212
746,0.315551233959479
747,0.315562980118406
748,0.315763001344082
749,0.316392330055685
750,0.31745191216299
751,0.31872601881783
752,0.320117574446874
753,0.321678943850451
754,0.323359455331099
755,0.324998998039144
756,0.326554088676961
757,0.328086144767649
758,0.329581945721232
759,0.331040043567286
760,0.332651185880215
761,0.334643212436413
762,0.336999717418749
763,0.339568761283648
764,0.34237949986984
765,0.345599636109846
766,0.349272743747878
767,0.353380962347579
768,0.358073347276887
769,0.363448830997886
770,0.369080702192416
771,0.374105094350259
772,0.377903426397225
773,0.380517064250378
774,0.382402869191323
775,0.384055567990413
776,0.385876004145068
777,0.388052296368502
778,0.390424595771167
779,0.392671333210079
780,0.39469302146574
781,0.396605200493353
782,0.3983607276386
783,0.399681025145037
784,0.400418895283895
785,0.400712928149213
786,0.400712947631496
787,0.400427358331381
788,0.399908538443836
789,0.399274879007339
790,0.398469189053136
791,0.397293831410871
792,0.395785030724556
793,0.394256989666815
794,0.392862669602872
795,0.391427213475033
796,0.389822086104516
797,0.388182631419199
798,0.386620037681453
799,0.385031543633533
800,0.38334725514292
801,0.381694124334834
802,0.380243217754925
803,0.379176620149064
804,0.37877729649666
805,0.379072120367511
806,0.379295060464029
807,0.378247779776963
808,0.375508102254134
809,0.371920120622385
810,0.368671902867319
811,0.366230144301672
812,0.36437687196509
813,0.362846450769159
814,0.361521060278422
815,0.36027542744953
816,0.359009506084821
817,0.357755319743313
818,0.35656472096266
819,0.355451817861323
820,0.354560122312706
821,0.354138489872007
822,0.354240898085557
823,0.354748975804932
824,0.355822266683374
825,0.357894640669778
826,0.360845235103762
827,0.363399528292713
828,0.363737424646767
829,0.36072802225419
830,0.354653462028679
831,0.347065388487243
832,0.33998298718231
833,0.334809910908403
834,0.331702794428161
835,0.330031091226703
836,0.329351002948842
837,0.329622228063516
838,0.33066621714156
839,0.33204856436449
840,0.333674985089392
841,0.335949691126571
842,0.339162724506002
843,0.343234443225095
844,0.348210056127159
845,0.354224952326976
846,0.360409436737603
847,0.364525649284903
848,0.364706834390166
849,0.361624266332709
850,0.358281551767677
851,0.357531957761969
852,0.360195609884209
853,0.365325304761747
854,0.371610401690363
855,0.378350742237674
856,0.385519972057421
857,0.393376936428669
858,0.402106904353019
859,0.411708472749957
860,0.422208462377707
861,0.433826225491679
862,0.446808587192862
863,0.461221427996931
864,0.477026130961447
865,0.494332834961711
866,0.513383241973561
867,0.534292859483988
868,0.556747833696147
869,0.57961043325098
870,0.600521442662247
871,0.616183748317218
872,0.623740169276994
873,0.622063018511354
874,0.611732346261928
875,0.593991296842667
876,0.570265542927754
877,0.542393037588223
878,0.51246322232073
879,0.48251566696568
880,0.454327445478853
881,0.428861958994418
882,0.405440408423214
883,0.381954237948694
884,0.356767361741956
885,0.330527165244481
886,0.306043625688395
887,0.286509536974753
888,0.273851299463784
889,0.2680495684834
890,0.267455578288312
891,0.269805990078367
892,0.273293892887191
893,0.277123079609776
894,0.281155135050946
895,0.285268966967529
896,0.289158957941521
897,0.292540587225428
898,0.295331200810357
899,0.297599271318748
900,0.299477227506235
901,0.301101960535675
902,0.302556766607041
903,0.303907274621565
904,0.305330878261853
905,0.307107871501728
906,0.309391763712631
907,0.312087307588692
908,0.315044857364879
909,0.318257701707087
910,0.321778810052934
911,0.325584782688901
912,0.329633881298433
913,0.333942924116658
914,0.338448302305847
915,0.342877962153115
916,0.346910320243305
917,0.350413488002393
918,0.353415289106305
919,0.355934737748443
920,0.357993672968955
921,0.359696479510002
922,0.361147056181386
923,0.362342041574526
924,0.363279426250021
925,0.364110638591462
926,0.365057460048694
927,0.366258031351227
928,0.367791282896117
929,0.369734306987719
930,0.372071663331679
931,0.374697140669239
932,0.377644505076557
933,0.381137813793643
934,0.385147750802786
935,0.388966804078665
936,0.391529397018128
937,0.392269552003538
938,0.391564910897025
939,0.390375035949738
940,0.389566079275358
941,0.389482175131581
942,0.389935125914308
943,0.390521486817091
944,0.391036296971275
945,0.391620984071056
946,0.392515195846648
947,0.393777900284502
948,0.395313326380407
949,0.397051117671637
950,0.398951068529796
951,0.400911716776691
952,0.402824259915851
953,0.404684433567099
954,0.406558463012754
955,0.40847877822625
956,0.410464636160318
957,0.41256830963031
958,0.414794439260047
959,0.417048343423575
960,0.419268464985002
961,0.421530985554764
962,0.423922334833734
963,0.426406485287618
964,0.428964997261633
965,0.431758322457816
966,0.434942580881494
967,0.438327917951945
968,0.44136922148806
969,0.44354492878876
970,0.444720112382916
971,0.445211987133714
972,0.445601057058974
973,0.446394741889208
974,0.447737283671062
975,0.449453131051517
976,0.451362304267987
977,0.453446715374357
978,0.455694864902299
979,0.458005737786892
980,0.46036894299286
981,0.462954022530452
982,0.465861818928977
983,0.468916987719715
984,0.471884864349988
985,0.474760087512401
986,0.47767059430166
987,0.480640773641786
988,0.483649042692007
989,0.486809657602052
990,0.49028755648353
991,0.49411712835102
992,0.498307568118007
993,0.502998002826451
994,0.508275618899355
995,0.513931232780599
996,0.519631462832976
997,0.525338160225794
998,0.531330262035347
999,0.537865750457948
1000,0.5450392698931
1001,0.552878670076623
1002,0.561338106322807
1003,0.570194324322057
1004,0.579188083565321
1005,0.588268819782748
1006,0.597484947732705
1007,0.606692966933734
1008,0.6156376244042
1009,0.624277844817253
1010,0.6327373951742
1011,0.6409750199887
1012,0.648817368115744
1013,0.656293936497902
1014,0.663595996684558
1015,0.67071529364809
1016,0.67751097623784
1017,0.684137728042981
1018,0.691031762544197
1019,0.698454088466983
1020,0.706421857033728
1021,0.715072025051909
1022,0.724710255371014
1023,0.735520883232965
1024,0.747652289108348
1025,0.761540093623233
1026,0.777347373462631
1027,0.793611766896627
1028,0.80686501442006
1029,0.813428347156355
1030,0.812039194681869
1031,0.805070426063127
1032,0.797416302716323
1033,0.793831850224658
1034,0.796462245517581
1035,0.804289770884493
1036,0.814699790356298
1037,0.825392750029521
1038,0.835117850154687
1039,0.843401061026822
1040,0.850412752759545
1041,0.856863476882851
1042,0.863350479689737
1043,0.869787245796028
1044,0.875869418198043
1045,0.88180817954808
1046,0.888005943404956
1047,0.894266577069102
1048,0.90003041448635
1049,0.905298471588543
1050,0.910576293967452
1051,0.915994403838064
1052,0.921263739664174
1053,0.926449810272195
1054,0.931997914666189
1055,0.937952478332898
1056,0.943836861862301
1057,0.949288952488654
1058,0.954214129842911
1059,0.958432747905414
1060,0.961855919616005
1061,0.964940220104203
1062,0.968312204009257
1063,0.971978530157185
1064,0.975505903072677
1065,0.978758734292711
1066,0.981776585964737
1067,0.984204241448267
1068,0.985695698279692
1069,0.986759918246409
1070,0.988341847446177
1071,0.990646468900638
1072,0.993135669692823
1073,0.995489359801444
1074,0.997711568082194
1075,0.9994275599749
1076,1
1077,0.999363274954523
1078,0.997856753988852
1079,0.995349009985052
1080,0.991442052893393
1081,0.986436797371667
1082,0.981209764278854
1083,0.976126146292289
1084,0.970972913598374
1085,0.965848916713384
1086,0.961210277248622
1087,0.957083943172832
1088,0.953067344703633
1089,0.949095093564459
1090,0.945440653393159
1091,0.942012984111485
1092,0.938413116071317
1093,0.934660492351334
1094,0.931120447260558
1095,0.92777112343378
1096,0.924254360450194
1097,0.920572341720013
1098,0.916998194673526
1099,0.913367324146726
1100,0.909211149112903
1101,0.904450048031001
1102,0.899318077642227
1103,0.893691228845415
1104,0.887164501017015
1105,0.879869203110504
1106,0.872237739133331
1107,0.864236669794798
1108,0.85549736723262
1109,0.846059599708514
1110,0.836278625731499
1111,0.826109524439731
1112,0.815278354739297
1113,0.804029007817504
1114,0.792961010244244
1115,0.78228365830791
1116,0.771881404431956
1117,0.76195166836868
1118,0.75288133608364
1119,0.744616748069895
1120,0.736774956263272
1121,0.729268136792483
1122,0.722186460559806
1123,0.715202091480989
1124,0.7077607203794
1125,0.699779742244896
1126,0.691518444271466
1127,0.682880040149602
1128,0.67359626621065
1129,0.66417168945734
1130,0.655843911118205
1131,0.649322313444776
1132,0.644200088666465
1133,0.639713502908607
1134,0.635463867814674
1135,0.631295032272052
1136,0.627069172460363
1137,0.622797166237582
1138,0.618635534445827
1139,0.61463503568142
1140,0.610741894864881
1141,0.607071642368153
1142,0.603864698576515
1143,0.601132213822974
1144,0.598676438372627
1145,0.596461088613127
1146,0.594644251845286
1147,0.593239390703224
1148,0.592055875532341
1149,0.591018035958339
1150,0.590206407413292
1151,0.589526146177662
1152,0.588618700823068
1153,0.587164659785073
1154,0.585019524636379
1155,0.582085176356864
1156,0.578351469952056
1157,0.574051206445213
1158,0.569530136102484
1159,0.564954458884779
1160,0.560372399478228
1161,0.555966340360139
1162,0.551950669524957
1163,0.548295069130245
1164,0.544841742823157
1165,0.541646306483982
1166,0.538899589120968
1167,0.536549620643877
1168,0.534285435647416
1169,0.531903566450868
1170,0.529439735287825
1171,0.526962265944481
1172,0.524514872341802
1173,0.522250625096266
1174,0.520375741810733
1175,0.518922476454075
1176,0.51772724269794
1177,0.516578616231017
1178,0.515216538792149
1179,0.513339530311591
1180,0.51094085991736
1181,0.508571839895762
1182,0.506917295343899
1183,0.50610094583619
1184,0.505698038225122
1185,0.505373361070971
1186,0.505182810927812
1187,0.505328551432168
1188,0.505945944894091
1189,0.507190638592982
1190,0.509281611036222
1191,0.512309396463046
1192,0.516239957125976
1193,0.521115895613334
1194,0.527070318808951
1195,0.534181510431667
1196,0.542452543973351
1197,0.551985398049347
1198,0.562877593171125
1199,0.574823627996246
1200,0.586925262105774
1201,0.59790433888723
1202,0.606345072742068
1203,0.611021861856232
1204,0.611622458682791
1205,0.60905037198504
1206,0.604666367844963
1207,0.599109314494786
1208,0.592150880679065
1209,0.5835304406232
1210,0.573218932763738
1211,0.561148414914677
1212,0.547270624163386
1213,0.531951577551231
1214,0.515920399594731
1215,0.499768734342316
1216,0.483900389015175
1217,0.468829700760526
1218,0.455116422926886
1219,0.443002144362457
1220,0.432401181445714
1221,0.423161239579857
1222,0.415097614645673
1223,0.40787381916342
1224,0.401089958302373
1225,0.394591339358594
1226,0.388487915465912
1227,0.38285854441008
1228,0.377625952138756
1229,0.372682965110355
1230,0.367979016792854
1231,0.363438592451192
1232,0.358952249308736
1233,0.354509108689406
1234,0.350199512979021
1235,0.346077129191891
1236,0.342130668077735
1237,0.33841170738839
1238,0.335080641745062
1239,0.332241662215707
1240,0.329783205667312
1241,0.327422621328421
1242,0.324892258309104
1243,0.32209161325151
1244,0.319118919622222
1245,0.316195209413973
1246,0.313508319619175
1247,0.311082629580895
1248,0.308770912726276
1249,0.306342990832039
1250,0.303593062191969
1251,0.30044739437599
1252,0.297029075456383
1253,0.293571356348409
1254,0.290224992884164
1255,0.286967112555373
1256,0.283704721983733
1257,0.280410754667599
1258,0.277106691733247
1259,0.273747256036322
1260,0.27022629842874
1261,0.266551023831498
1262,0.262934471282522
1263,0.259671388786562
1264,0.256954914600198
1265,0.254826766318157
1266,0.253272751310048
1267,0.252261339738147
1268,0.251709515331305
1269,0.251476525824062
1270,0.251413361503662
1271,0.251403743614966
1272,0.251357800118756
1273,0.251250198755595
1274,0.251176108643022
1275,0.251283281739352
1276,0.251633552644655
1277,0.252186300256855
1278,0.252926683649159
1279,0.253893831015825
1280,0.255025910301229
1281,0.256118668330127
1282,0.257014820314013
1283,0.25773092442945
1284,0.25836685493033
1285,0.259010666946968
1286,0.259773337392714
1287,0.260743136944995
1288,0.261830698739616
1289,0.262817669741804
1290,0.263632660308045
1291,0.264445079631528
1292,0.265437846450683
1293,0.266633818285062
1294,0.267993333033497
1295,0.269499716126928
1296,0.271066143744694
1297,0.272527239580537
1298,0.273836034752205
1299,0.275139743873012
1300,0.276566140351902
1301,0.27808195137387
1302,0.279644990483475
1303,0.281316532508769
1304,0.283140457372251
1305,0.285056893009837
1306,0.28703703394732
1307,0.289138052740567
1308,0.291351154737695
1309,0.293560027663729
