"Wave Length","Absorbance"
450,0.874928083973607
451,0.887189308205024
452,0.898069772706356
453,0.905919754721361
454,0.91274415933456
455,0.918557678808696
456,0.91994674875216
457,0.920357595434017
458,0.918327467808078
459,0.900157930045107
460,0.905263559723297
461,0.907372787001568
462,0.911548348540193
463,0.913905942108032
464,0.913091749998492
465,0.911108701579322
466,0.910584618733127
467,0.908862422755163
468,0.902907363451874
469,0.895141879254095
470,0.888472197654614
471,0.879761153607934
472,0.865098152582455
473,0.848286243964929
474,0.835495207958438
475,0.824806060476831
476,0.811183629059202
477,0.794703970316823
478,0.778289909846214
479,0.762108230089293
480,0.74503162446345
481,0.728253016732177
482,0.713021317815708
483,0.697320108838968
484,0.679045445195055
485,0.660143175334633
486,0.643473330921551
487,0.628314377346095
488,0.612758099394611
489,0.597238084931392
490,0.582756373273527
491,0.568211487868162
492,0.55247936600967
493,0.537415899998379
494,0.525373464377937
495,0.515485857253024
496,0.5058879618898
497,0.496899663215325
498,0.48950820952761
499,0.482840652700031
500,0.475860456139952
501,0.46993093149909
502,0.466528425139089
503,0.463898275033342
504,0.459865666133238
505,0.455431641551696
506,0.452466850534646
507,0.450425627764574
508,0.447693345306421
509,0.44484968690105
510,0.443279723660702
511,0.442297191929805
512,0.440369440772283
513,0.437542336737703
514,0.434598842876113
515,0.430890898503323
516,0.425753838863625
517,0.420787708658566
518,0.417886002200437
519,0.415750600672419
520,0.412180392095636
521,0.408197664547391
522,0.40617033870225
523,0.406047595220709
524,0.406124290897917
525,0.405988709918718
526,0.406248480951321
527,0.406284127344809
528,0.405196386518078
529,0.403925670824
530,0.403813722977708
531,0.404652039863469
532,0.405476842481589
533,0.406320039634521
534,0.407616739278802
535,0.408567863311358
536,0.408107019068989
537,0.406765788530735
538,0.405773557852773
539,0.405058560524005
540,0.404280479755597
541,0.404274177736341
542,0.405618918662046
543,0.407067100942066
544,0.407468792885173
545,0.407795414794424
546,0.409212208718807
547,0.410623672196024
548,0.410544772051027
549,0.409896480933532
550,0.410353600756541
551,0.411639335067976
552,0.412750404007659
553,0.414284651366209
554,0.417065093428378
555,0.419980248842347
556,0.421589120849013
557,0.422757652996342
558,0.425116919336686
559,0.428103918263808
560,0.429972042918526
561,0.43058999677153
562,0.430910861469601
563,0.430850731784742
564,0.430218345616426
565,0.43035355509423
566,0.43236676920489
567,0.434868222302602
568,0.435908650941538
569,0.435976080906147
570,0.436703032380081
571,0.43784836637672
572,0.438333299559866
573,0.438830820205053
574,0.440583934434873
575,0.442941939311019
576,0.444241072783444
577,0.444597571832839
578,0.445276925974114
579,0.446185259225843
580,0.446539523054198
581,0.446927964961613
582,0.448264741141521
583,0.449748855834565
584,0.450180969890535
585,0.450215472065013
586,0.451351609298784
587,0.453559637389264
588,0.455915419608189
589,0.458429171819107
590,0.461385976504912
591,0.463789934625668
592,0.464697606508526
593,0.46523532694079
594,0.466971043980506
595,0.469385775379986
596,0.471191486491795
597,0.472736425916309
598,0.474903533333395
599,0.476873303067089
600,0.477158619428182
601,0.476175328874457
602,0.475346512632532
603,0.47446923516278
604,0.472385764400921
605,0.469341686259918
606,0.466425881119106
607,0.463262350268428
608,0.458591579161386
609,0.452798571718751
610,0.447429093769988
611,0.442528693471167
612,0.437217820362256
613,0.431913159323235
614,0.427800996633195
615,0.424873019929829
616,0.422761716455206
617,0.422824009540266
618,0.42673165114149
619,0.43313269703808
620,0.438249214933113
621,0.439977743185847
622,0.43934721081784
623,0.437932027374431
624,0.435666124404237
625,0.431228521238829
626,0.423062628154792
627,0.410427595969749
628,0.394741624646511
629,0.379452610078028
630,0.367358395389484
631,0.358427728250893
632,0.351486643978815
633,0.346574783746273
634,0.344017670318793
635,0.342663255009816
636,0.341156679935253
637,0.340111206557083
638,0.340873312047479
639,0.342884977368985
640,0.344693271734495
641,0.346929932515798
642,0.351348212152263
643,0.357210952204098
644,0.36117024922377
645,0.360459124541468
646,0.354668683446074
647,0.345227044989608
648,0.334811040820569
649,0.326814488936469
650,0.322916720180407
651,0.321251733650356
652,0.319314006585283
653,0.317361954621288
654,0.316671112362609
655,0.31642928185506
656,0.314940272025726
657,0.312852390699776
658,0.311938480286024
659,0.312104070190842
660,0.312354056773825
661,0.312982694946825
662,0.314000793053157
663,0.313351516989397
664,0.308559346620935
665,0.298510581451952
666,0.28400314821418
667,0.267361764838706
668,0.25701520659561
669,0.265776633800019
670,0.285318928748293
671,0.30239331242114
672,0.313599511536995
673,0.32027824148489
674,0.324135175527195
675,0.326266741146331
676,0.327649541182605
677,0.329013780550051
678,0.330043384450261
679,0.330227205181367
680,0.329693885028681
681,0.328945984415593
682,0.327883574942582
683,0.326683434266148
684,0.326141317215892
685,0.326695477526583
686,0.32823672600909
687,0.330709905471668
688,0.334232468038703
689,0.338476346592024
690,0.342907268249668
691,0.347555252116372
692,0.35281197208405
693,0.359049055651343
694,0.366480917117333
695,0.375298014973002
696,0.385930417798177
697,0.398542880591674
698,0.412764837782459
699,0.427810088318174
700,0.442407421919011
701,0.455009006876557
702,0.463879078964256
703,0.467587032671988
704,0.466171202988598
705,0.461707716012802
706,0.457906972688329
707,0.458743269068454
708,0.467033160241874
709,0.483208717531245
710,0.503323680131716
711,0.518102963630178
712,0.516363145953001
713,0.492026100197412
714,0.449387086904556
715,0.400786488658089
716,0.358391263878774
717,0.32793668096157
718,0.308742924988027
719,0.297659279675893
720,0.291989150214987
721,0.289826457709852
722,0.289694488078582
723,0.290676658196292
724,0.292402551230896
725,0.294601612572742
726,0.296842100888686
727,0.298852325081463
728,0.300730140210385
729,0.3025249355769
730,0.303967200072512
731,0.304883796720612
732,0.305626784372447
733,0.306570319346823
734,0.307600340441531
735,0.308637972118399
736,0.310011919204566
737,0.311897848209355
738,0.313837028356533
739,0.315210301061149
740,0.315863682974573
741,0.315976306421811
742,0.315670163329005
743,0.315104427832677
744,0.314665345053666
745,0.314651261567959
746,0.314930663390721
747,0.31524463395759
748,0.315673023407122
749,0.316471827019859
750,0.317639013091965
751,0.318993231227281
752,0.320552750140785
753,0.322467424200128
754,0.32461941630428
755,0.326642613705075
756,0.328344487244575
757,0.329832039298712
758,0.331282298925525
759,0.332868059244284
760,0.334791167576647
761,0.337102081288423
762,0.339577966976485
763,0.342047889555891
764,0.344717766086513
765,0.347887898969517
766,0.351518913765845
767,0.355438514387063
768,0.359817167320353
769,0.364945151832017
770,0.370536882951474
771,0.375708413953066
772,0.379736052812022
773,0.382540872310093
774,0.384445286180106
775,0.38585570468601
776,0.387239483888362
777,0.388979813846322
778,0.391064546621369
779,0.393169909362305
780,0.395124571578267
781,0.397011168227198
782,0.39879004390824
783,0.400178797906315
784,0.400985469006239
785,0.401250906994882
786,0.400997236126221
787,0.400172093865267
788,0.398934079156756
789,0.39763859127707
790,0.396437119279068
791,0.395195506858226
792,0.393863327654711
793,0.392580164358206
794,0.391335633633051
795,0.38990903577952
796,0.38825551544613
797,0.386595987453154
798,0.385029418138369
799,0.383431864941342
800,0.381834873953008
801,0.380531808366675
802,0.379740000272228
803,0.379498529614592
804,0.379843344989825
805,0.380563841766378
806,0.380796710637088
807,0.379518071672072
808,0.376682549548447
809,0.373366015006739
810,0.370593589195201
811,0.368508678680536
812,0.366847657039188
813,0.365603156402488
814,0.364816254611779
815,0.36418408634853
816,0.363310364908934
817,0.362119578692156
818,0.360791843358763
819,0.359603326994876
820,0.359000119096332
821,0.359387339637026
822,0.360613563544771
823,0.362120302600203
824,0.363859192709297
825,0.366504683975829
826,0.37023922092195
827,0.373702911559975
828,0.374720243277025
829,0.371984941220155
830,0.365916389571107
831,0.358262000500041
832,0.351116185518102
833,0.345916267313901
834,0.342904586583696
835,0.341544920932381
836,0.341418745469783
837,0.342430963858877
838,0.344302603679117
839,0.34650000210694
840,0.348887173932167
841,0.351902209022505
842,0.355901589768012
843,0.360867731217782
844,0.366890535430697
845,0.374058326224736
846,0.381274947420464
847,0.38600839427059
848,0.386329109999828
849,0.383196094795164
850,0.379973741808185
851,0.379619468599785
852,0.38284409768298
853,0.388650474512326
854,0.395805485817554
855,0.403624291083507
856,0.41194159985171
857,0.420888506578411
858,0.430698223877966
859,0.441520824118203
860,0.453448872482031
861,0.466623546569684
862,0.481198820276605
863,0.497291434599433
864,0.515055351618084
865,0.534755444141438
866,0.556581746841245
867,0.580427362022152
868,0.60574298951428
869,0.631184845081959
870,0.654107966353707
871,0.670852274818621
872,0.678345679079662
873,0.675533949059369
874,0.663212231442325
875,0.642784360187902
876,0.615828456722866
877,0.584426936717067
878,0.550881426637266
879,0.517269593525904
880,0.485300361946306
881,0.455886720761391
882,0.428300055628359
883,0.400375387781362
884,0.370574601060877
885,0.339887125982821
886,0.311533521049603
887,0.288948425381364
888,0.274104950018045
889,0.26692242471389
890,0.265604989134947
891,0.267666413597575
892,0.271079251784739
893,0.274905107856171
894,0.278909000025653
895,0.282898866635851
896,0.286608105798302
897,0.289919453799649
898,0.292869768255785
899,0.295433346625069
900,0.297524997624068
901,0.2991688619321
902,0.300520570328727
903,0.301798578647636
904,0.303293720127164
905,0.305293348861132
906,0.307819530761979
907,0.310582870799184
908,0.313364110398723
909,0.316292422628841
910,0.319599424866433
911,0.323281492741286
912,0.327184421000621
913,0.331244714654194
914,0.33539315219654
915,0.339358728972547
916,0.342839378367507
917,0.345815674349296
918,0.348479497565394
919,0.35092582912939
920,0.353102891771513
921,0.354959470535808
922,0.356463637122867
923,0.357572071016414
924,0.358374074743742
925,0.359171065686499
926,0.360232818891251
927,0.361592837966048
928,0.363219060617288
929,0.365202088859869
930,0.367595365629014
931,0.370298969230684
932,0.373330044823381
933,0.376943222951045
934,0.381096037553783
935,0.384934368135242
936,0.387264055624304
937,0.387611654069209
938,0.386573686353925
939,0.385187929635196
940,0.384243453290894
941,0.384088293274735
942,0.384663937767498
943,0.385580761871113
944,0.386419566693436
945,0.387124696341413
946,0.388002204991212
947,0.389323181581582
948,0.391059405074324
949,0.392992143872347
950,0.394913067804761
951,0.396714021829329
952,0.398431139937083
953,0.400216835566265
954,0.402169025018692
955,0.404212289232302
956,0.406245613335867
957,0.408322163858031
958,0.410553778138821
959,0.41293353504201
960,0.415407962231612
961,0.41802426771714
962,0.420812867705663
963,0.423611368386476
964,0.426246805689372
965,0.428842552870747
966,0.431689250943589
967,0.434776888465349
968,0.437641662476906
969,0.43973422527661
970,0.440853484098816
971,0.441253804854366
972,0.441476576301788
973,0.44204176389442
974,0.443144049243591
975,0.444635095928823
976,0.446320075690973
977,0.448175245938902
978,0.450222414294797
979,0.452397776736098
980,0.454708354298368
981,0.457343896410181
982,0.460426713891417
983,0.463748109687175
984,0.466963752330627
985,0.46994935088802
986,0.472788477270382
987,0.475551720999817
988,0.478304910017384
989,0.481214986294037
990,0.484409230690675
991,0.487834719498561
992,0.491498864646454
993,0.495686593316089
994,0.500639420242152
995,0.506139467181516
996,0.511717178548994
997,0.517240975979429
998,0.522969670528696
999,0.529099646919771
1000,0.535628670580081
1001,0.54261958836458
1002,0.550227692880059
1003,0.558388622129288
1004,0.566808181651064
1005,0.575316025989778
1006,0.583922711010854
1007,0.592517180362043
1008,0.600869675354022
1009,0.608987037882517
1010,0.617086799362667
1011,0.625142788356539
1012,0.632828637082108
1013,0.640006326814499
1014,0.646882669916391
1015,0.653576121995495
1016,0.65995685865222
1017,0.666069760359225
1018,0.672324912617168
1019,0.679099773433203
1020,0.686510682905571
1021,0.69469047547329
1022,0.703951711520103
1023,0.714572753898894
1024,0.726790256706477
1025,0.741051585658851
1026,0.757491135939957
1027,0.774530846726297
1028,0.788348660067887
1029,0.794759454350889
1030,0.792278820885366
1031,0.783649000895637
1032,0.77446215469116
1033,0.769956384386852
1034,0.772320038311621
1035,0.780340572289776
1036,0.791195502166937
1037,0.802388856445242
1038,0.812493901736368
1039,0.820973577368069
1040,0.828076578489089
1041,0.834612689960824
1042,0.841214546844195
1043,0.847833838130848
1044,0.85426357947149
1045,0.860783221888528
1046,0.867735579982118
1047,0.874794000954739
1048,0.881320417167507
1049,0.887292639657762
1050,0.893164121064225
1051,0.899000061450259
1052,0.90456061383731
1053,0.910104231416135
1054,0.916237610985638
1055,0.922967045047965
1056,0.929647274609382
1057,0.935831858731811
1058,0.941498194154783
1059,0.94652824638248
1060,0.950735660873878
1061,0.954433182951312
1062,0.95828884864413
1063,0.96254526907684
1064,0.966925921336727
1065,0.971150456702779
1066,0.974927581244479
1067,0.977717281406447
1068,0.979330151279246
1069,0.980642040564768
1070,0.982866694674772
1071,0.986182066548298
1072,0.989793092175156
1073,0.993139598830669
1074,0.996185651667869
1075,0.998661487317556
1076,0.999982265497182
1077,1
1078,0.998962067833286
1079,0.996776520848333
1080,0.993170532079704
1081,0.988485758791854
1082,0.98350939686626
1083,0.978536230010658
1084,0.973431552226039
1085,0.968444778476195
1086,0.964082707492722
1087,0.960299087690529
1088,0.956626330892865
1089,0.953002767905214
1090,0.949679830644681
1091,0.946464489711343
1092,0.942901992035792
1093,0.939131147517153
1094,0.935720271963033
1095,0.932728217236024
1096,0.929701808204924
1097,0.92649228822526
1098,0.923259477099308
1099,0.919769912872881
1100,0.915571292557297
1101,0.910736727446186
1102,0.905707106388141
1103,0.900429710086295
1104,0.894369725314357
1105,0.887509904952865
1106,0.880241766723635
1107,0.872544712364852
1108,0.864014956947666
1109,0.854631877130335
1110,0.844736046513258
1111,0.834314367665768
1112,0.823151757222187
1113,0.811593075073052
1114,0.800344198839743
1115,0.789615084784734
1116,0.779152081768592
1117,0.768998473412688
1118,0.759511648612417
1119,0.75074180119158
1120,0.742456891084609
1121,0.734685683327791
1122,0.727535415993128
1123,0.720560692722434
1124,0.713021245862869
1125,0.704738020963008
1126,0.696057659106832
1127,0.68707697373413
1128,0.677666362231636
1129,0.668308144764888
1130,0.660068263476868
1131,0.653462021119027
1132,0.648029603444899
1133,0.64314021763027
1134,0.638569898639124
1135,0.634197794129353
1136,0.629796046903561
1137,0.62534635935063
1138,0.621103263221224
1139,0.617170225618733
1140,0.613363843816019
1141,0.609628788860793
1142,0.606219189518111
1143,0.603320704936382
1144,0.600845122400139
1145,0.598701817638015
1146,0.59696070582952
1147,0.595637067820938
1148,0.594580114288201
1149,0.59369138858513
1150,0.592988461833539
1151,0.592371146855116
1152,0.591544700869533
1153,0.590225259592722
1154,0.588205584713681
1155,0.585288639937433
1156,0.581455621051207
1157,0.57705184294346
1158,0.572540065904911
1159,0.568082927559538
1160,0.563627247546581
1161,0.559283749732609
1162,0.555276244707311
1163,0.551588908885218
1164,0.54802246666667
1165,0.544594145038696
1166,0.541546279391731
1167,0.538948166421246
1168,0.536574083643448
1169,0.534202566136271
1170,0.531781591360541
1171,0.529310895506396
1172,0.526847069344526
1173,0.524611526578579
1174,0.522841117583383
1175,0.521513580859388
1176,0.520400539728193
1177,0.519321434941521
1178,0.518118693610507
1179,0.516523945454612
1180,0.514414198525479
1181,0.51216499474873
1182,0.510383814642814
1183,0.509276671949852
1184,0.50859410225669
1185,0.508141610907489
1186,0.507977661255862
1187,0.508176960454899
1188,0.508755828518426
1189,0.509881228366315
1190,0.511865176361153
1191,0.514840303989987
1192,0.518758395420958
1193,0.523689932664288
1194,0.529832005234546
1195,0.537240035350768
1196,0.545784655139273
1197,0.555473458815656
1198,0.566449941364298
1199,0.578512708817674
1200,0.590802831424735
1201,0.602002340196265
1202,0.610616265134273
1203,0.615331463056011
1204,0.615823960473448
1205,0.613152015373574
1206,0.608902938115368
1207,0.603767142453304
1208,0.597313602478754
1209,0.589052548350822
1210,0.578934463332448
1211,0.567029046627301
1212,0.553396074564166
1213,0.538431377570262
1214,0.522871877597726
1215,0.507288139304633
1216,0.492003985940616
1217,0.477458120493016
1218,0.464205269006723
1219,0.452503823633897
1220,0.442253704347355
1221,0.433309560869791
1222,0.425554203840341
1223,0.418695694220167
1224,0.412292733663366
1225,0.406142632212365
1226,0.400377938203882
1227,0.395098739998315
1228,0.390163097065535
1229,0.385385054567477
1230,0.380717736778287
1231,0.376128215076679
1232,0.371520230223072
1233,0.366923127794158
1234,0.362541442578401
1235,0.358491613519816
1236,0.354656393618938
1237,0.350945574116593
1238,0.347557671291398
1239,0.344775903720757
1240,0.342567093931859
1241,0.340530634437936
1242,0.338241502628839
1243,0.335564199186231
1244,0.332674795150455
1245,0.329886542904548
1246,0.327417277817862
1247,0.32523477196168
1248,0.323102484617179
1249,0.320782123630709
1250,0.318177255662096
1251,0.315313825141885
1252,0.312276923139827
1253,0.309178688734727
1254,0.306105017778816
1255,0.303049062396718
1256,0.299941123205784
1257,0.296771941397879
1258,0.293622536272461
1259,0.290521670512891
1260,0.287361913810509
1261,0.284074063220189
1262,0.280814026483888
1263,0.277873905681308
1264,0.275453494360865
1265,0.273596125317555
1266,0.272304483248105
1267,0.271573178782638
1268,0.271326437420685
1269,0.271417856054425
1270,0.271689546698316
1271,0.271988855587242
1272,0.272171979486811
1273,0.272213044634154
1274,0.272277166200874
1275,0.272573268220477
1276,0.27315955017406
1277,0.273965810790561
1278,0.274965652188912
1279,0.276180832401525
1280,0.277511200546536
1281,0.278741894805434
1282,0.27975742043271
1283,0.280604656388645
1284,0.281357999938374
1285,0.282090701999303
1286,0.282962219907712
1287,0.284113818303475
1288,0.285434997467252
1289,0.286647403581913
1290,0.287651636168508
1291,0.288608260419083
1292,0.28968862069001
1293,0.290946856769254
1294,0.292433527452023
1295,0.294191783188435
1296,0.296088555944911
1297,0.29786393734701
1298,0.299422693918737
1299,0.300903198635006
1300,0.302428818144009
1301,0.303994707092182
1302,0.305629921858839
1303,0.307437079187323
1304,0.30942809014047
1305,0.311520136484909
1306,0.313733201582824
1307,0.316158981182818
1308,0.318705808129419
