"Wave Length","Absorbance"
450,0.841012090596455
451,0.848175552131587
452,0.854731143459253
453,0.85935267404591
454,0.864245831018142
455,0.868345029725285
456,0.871597657766905
457,0.871339857062052
458,0.858312695666425
459,0.861881457148373
460,0.862071747515907
461,0.862238204848723
462,0.863483485890593
463,0.864906883347936
464,0.863711214006971
465,0.861096258248232
466,0.858657100315039
467,0.85483605772743
468,0.847867532851745
469,0.840097594711478
470,0.833994933203493
471,0.826942505572326
472,0.815005007749781
473,0.800110964788037
474,0.787289326916095
475,0.776225827660845
476,0.763576757128603
477,0.7490256433296
478,0.734301548532106
479,0.719490860757217
480,0.704016755585427
481,0.689051831417324
482,0.675763232199422
483,0.662669827281451
484,0.647681988278027
485,0.631423154581493
486,0.615741287226999
487,0.600625384292923
488,0.585358073863619
489,0.570640770490768
490,0.557385705993187
491,0.544884077851936
492,0.532120679614252
493,0.519942254920066
494,0.509710060891331
495,0.500906897036489
496,0.492527400283331
497,0.485050190716388
498,0.479169569467996
499,0.47391031323359
500,0.467986572043309
501,0.462177659210611
502,0.458258456355192
503,0.456097729301981
504,0.454205410270161
505,0.452172973047479
506,0.450368103625094
507,0.448357250963023
508,0.445494395375804
509,0.442461654659111
510,0.440187765300854
511,0.438275657385365
512,0.43590263289888
513,0.433181700643708
514,0.43054621702486
515,0.427512264550895
516,0.423639587174521
517,0.41982910648067
518,0.417078071147551
519,0.414608879014455
520,0.411424014803369
521,0.408452992881631
522,0.407026670395045
523,0.406773499005124
524,0.40653119875902
525,0.406230250041623
526,0.406434956085645
527,0.406829641965495
528,0.406941669639546
529,0.407356871409537
530,0.4085170165845
531,0.409673647927645
532,0.410035054157159
533,0.410121085880616
534,0.410794524794156
535,0.411664196584707
536,0.411873061524727
537,0.411627306190338
538,0.411512659028102
539,0.411054996088135
540,0.409810516311623
541,0.408739487578484
542,0.408939917202282
543,0.409879050179685
544,0.410514425458118
545,0.411159206646759
546,0.412573359569713
547,0.4141293329346
548,0.414796094718686
549,0.415117928742374
550,0.416245355156709
551,0.417937620568519
552,0.419236815416672
553,0.420333464693859
554,0.422025700760739
555,0.424133924106488
556,0.425984417223425
557,0.427813007690635
558,0.430115149834714
559,0.432341299797189
560,0.433729949049006
561,0.434639421281629
562,0.435614401280609
563,0.436092654026457
564,0.435689320544317
565,0.435600621769114
566,0.437016259038354
567,0.439149442637638
568,0.440594827743527
569,0.441592934076201
570,0.443152147161737
571,0.444864698552988
572,0.445724721913388
573,0.446114932886281
574,0.446976552292283
575,0.448030127797516
576,0.448464343175727
577,0.448804023560218
578,0.450045997687418
579,0.451722794530875
580,0.452725388512103
581,0.453237299951755
582,0.454083614896155
583,0.454976092787807
584,0.455272931296273
585,0.455647545600981
586,0.457274591406133
587,0.459871091307044
588,0.462271295922048
589,0.46429372398476
590,0.466519468782648
591,0.4686983962619
592,0.470108786352372
593,0.471128179974897
594,0.472722327960462
595,0.474807988173883
596,0.47670090991918
597,0.478460858880058
598,0.480291390158896
599,0.481370040362372
600,0.480775206421097
601,0.47913324097714
602,0.477643017337113
603,0.476084058164097
604,0.473492174565293
605,0.470046104610909
606,0.466637020956833
607,0.463082353405569
608,0.458538026792706
609,0.453363870723749
610,0.448712960715831
611,0.444520652434173
612,0.439937403765788
613,0.435119356313816
614,0.431031128606548
615,0.42802076436356
616,0.426279889270409
617,0.42711667156579
618,0.431632479055461
619,0.438150738875571
620,0.442995746621381
621,0.444187708045998
622,0.442847412544129
623,0.440770886626802
624,0.437963942165591
625,0.432817526734619
626,0.423687762242925
627,0.410390535776291
628,0.394878765652374
629,0.380297204434759
630,0.36876410473025
631,0.360157014304712
632,0.353560996652848
633,0.348947269860835
634,0.3465585770085
635,0.345656054033004
636,0.345203028750839
637,0.345248038128204
638,0.346324197670874
639,0.34800658347598
640,0.349676936847613
641,0.35225295908829
642,0.357075822483595
643,0.363134264419824
644,0.367089261116636
645,0.366137648613002
646,0.359970987578073
647,0.350429491622286
648,0.340356178928627
649,0.332534220313911
650,0.328068525675015
651,0.325618967102008
652,0.323461494755993
653,0.321544390522813
654,0.320422487460607
655,0.319543318270069
656,0.318060057376123
657,0.316551329632542
658,0.316002182995217
659,0.316100904247641
660,0.316153275237133
661,0.3164827717282
662,0.317206054589132
663,0.317009293658925
664,0.314212850360357
665,0.308032422462398
666,0.29892801434191
667,0.288533120498382
668,0.283102951456948
669,0.290304049832094
670,0.303218437001486
671,0.313887633345937
672,0.320994738425627
673,0.325758849780086
674,0.329331203596783
675,0.332092682252505
676,0.334167302339563
677,0.335730248119102
678,0.336704053001523
679,0.33702771101319
680,0.336873012057472
681,0.33647508014751
682,0.335757849749441
683,0.334967106350246
684,0.334724693786155
685,0.335345647776624
686,0.336786364873458
687,0.339049574790721
688,0.342213637272125
689,0.346073512386914
690,0.350388051433949
691,0.35532495705362
692,0.361178001393143
693,0.36807858740935
694,0.376042182599202
695,0.385223364128816
696,0.396062165970206
697,0.408785042357402
698,0.423087405179082
699,0.438142874406682
700,0.452556553889227
701,0.464560478586706
702,0.472291798462396
703,0.474477800951318
704,0.471461652421028
705,0.465588065312478
706,0.460662634748914
707,0.460606747873589
708,0.468083269401368
709,0.483190191321803
710,0.501686554194538
711,0.51452129046285
712,0.511369078268571
713,0.48717207622976
714,0.446501381983784
715,0.400804686572164
716,0.360942038362425
717,0.331992286471229
718,0.313443449752107
719,0.30250888561028
720,0.29667100213793
721,0.294178115079872
722,0.293764433040292
723,0.294586585267304
724,0.296171730041295
725,0.298191592812983
726,0.300305240672585
727,0.30229623706374
728,0.304189786383156
729,0.30604933172975
730,0.307785777625665
731,0.309277441013467
732,0.310588923810235
733,0.311819374901551
734,0.312946516575386
735,0.314061418257092
736,0.315403384163515
737,0.317024550755597
738,0.3186653378763
739,0.320054802439732
740,0.321088649707153
741,0.321653779099202
742,0.321594536393624
743,0.321023271444907
744,0.320404886852463
745,0.320111066046676
746,0.320069493482152
747,0.320064420148742
748,0.320201264656801
749,0.320802329493339
750,0.321963535239409
751,0.323484220667132
752,0.325186271509224
753,0.327053039728796
754,0.329056262537207
755,0.33108324462195
756,0.333068643332615
757,0.335008431953001
758,0.336851631287689
759,0.338585226311325
760,0.340401455484765
761,0.342571627735735
762,0.345133930782596
763,0.347890315637084
764,0.350732749428929
765,0.353787749454749
766,0.357228527797007
767,0.361138941157265
768,0.365574807286599
769,0.37050068497446
770,0.375548868638548
771,0.380047163728216
772,0.383470168429572
773,0.385820787660465
774,0.387519889816852
775,0.389045166845312
776,0.390721783012172
777,0.392667168188338
778,0.394784494797765
779,0.396882370494287
780,0.398878331367103
781,0.400791770228564
782,0.402504653972318
783,0.403701875982406
784,0.404159678136046
785,0.403984314572438
786,0.403467307440458
787,0.402797658064022
788,0.401992571242436
789,0.400988532061152
790,0.399730817759978
791,0.398267716840623
792,0.396785242477096
793,0.395430121272424
794,0.394093462404823
795,0.392548678534587
796,0.390805232611734
797,0.389098158845518
798,0.387497817459556
799,0.385812916440848
800,0.383978317863796
801,0.382287352345681
802,0.381132718356136
803,0.380711521301271
804,0.380995990833636
805,0.381652731227669
806,0.381908611158988
807,0.380906429802784
808,0.37849771754263
809,0.375468728343468
810,0.372784158196334
811,0.370797583459803
812,0.369330112991368
813,0.368201687496105
814,0.367367884447558
815,0.366730640917685
816,0.366124020094109
817,0.365453369412752
818,0.364706123834393
819,0.363950305116696
820,0.363438287867804
821,0.36352137051849
822,0.364344787662601
823,0.365846705076987
824,0.368169442551484
825,0.371667477863207
826,0.376088200196304
827,0.379920326283279
828,0.381036273989909
829,0.378153459243299
830,0.371719729143828
831,0.363614343767458
832,0.35609676112408
833,0.350712377592929
834,0.347763061586841
835,0.346688586629746
836,0.346887498157121
837,0.348032042895192
838,0.349789782245135
839,0.351751845537576
840,0.353852465102815
841,0.356482812791406
842,0.360029028800339
843,0.364638751691283
844,0.370498757073961
845,0.377606397412301
846,0.384723428730184
847,0.389246152886228
848,0.389235779055282
849,0.385759518243833
850,0.382461380710063
851,0.38251817073914
852,0.386464115531491
853,0.392809330174189
854,0.400021122634953
855,0.407586468296178
856,0.41568685217068
857,0.424596288233941
858,0.434472532700422
859,0.445342144832092
860,0.45719624676695
861,0.47014340311586
862,0.48442915209076
863,0.500259698115462
864,0.517657534601095
865,0.536607352246415
866,0.557202132297653
867,0.579499942260107
868,0.603099754589486
869,0.626656112282682
870,0.64757973894479
871,0.66242364443063
872,0.668260335356814
873,0.66397972919718
874,0.650344282029552
875,0.628915106938167
876,0.601429719353244
877,0.569949705500012
878,0.536725187836183
879,0.503915135061541
880,0.473309933697619
881,0.445731597157393
882,0.420261282457548
883,0.394585379544376
884,0.367049094035674
885,0.338552229029373
886,0.312305296966521
887,0.291722371053306
888,0.2785588631039
889,0.272418931344913
890,0.271466010778165
891,0.27356125935664
892,0.277064379892375
893,0.281123417302763
894,0.285386979716329
895,0.289599058541475
896,0.293500020092862
897,0.296948808673917
898,0.29995256542958
899,0.302513709135554
900,0.304580385014026
901,0.30616461811619
902,0.307420233012411
903,0.308587986630466
904,0.309933956143909
905,0.311702695836297
906,0.314005393876514
907,0.316755487767118
908,0.319811321557939
909,0.323162594968134
910,0.326892354887617
911,0.331012256793423
912,0.335431467620591
913,0.340049822917283
914,0.344734950379222
915,0.349237115796054
916,0.353285663522194
917,0.356785897700186
918,0.359797711164739
919,0.362351263066366
920,0.364438481831345
921,0.366134554574708
922,0.367554255573229
923,0.368698644920205
924,0.369526012124803
925,0.370174359850342
926,0.370938365046325
927,0.372033554557596
928,0.373534239782969
929,0.375498168840902
930,0.377960448352804
931,0.380851269594936
932,0.384114606838919
933,0.387840657107
934,0.391968459270678
935,0.395819199847268
936,0.398282465542435
937,0.398722277810579
938,0.397569173022179
939,0.395925640033135
940,0.394726496475194
941,0.394292422961243
942,0.39444123950748
943,0.394820368598472
944,0.395222167549251
945,0.395728191153879
946,0.396553811668595
947,0.397765501467076
948,0.399224983391087
949,0.400798848580507
950,0.402472453304785
951,0.404244181243266
952,0.406067677297426
953,0.407941271221334
954,0.409922771836816
955,0.411999478263553
956,0.414082271019367
957,0.416169512050107
958,0.418376181250926
959,0.420757705632422
960,0.423240860657051
961,0.425775400841684
962,0.428404518883209
963,0.431138174504868
964,0.43393675512379
965,0.436884772328793
966,0.440177146259672
967,0.443770553337577
968,0.44716378225598
969,0.44969952362081
970,0.451093347737955
971,0.451630153292869
972,0.451933356031723
973,0.452572064027083
974,0.453770925031377
975,0.455409562480505
976,0.457285285100913
977,0.459352867854527
978,0.461669831740481
979,0.464215332291881
980,0.466914961880264
981,0.469790117228777
982,0.472916710269833
983,0.476231575680716
984,0.47956566862606
985,0.482873859816814
986,0.486253168125384
987,0.489723024540286
988,0.493171052977297
989,0.496566139402214
990,0.500056632371152
991,0.503818262347392
992,0.507970299682788
993,0.512631460763147
994,0.517853700089706
995,0.523461141343558
996,0.529138104713858
997,0.534767797825972
998,0.540516377830182
999,0.546583290761853
1000,0.553084330153574
1001,0.560161543510307
1002,0.567949678629678
1003,0.576342442798315
1004,0.585029695697937
1005,0.59383170192982
1006,0.602750716558382
1007,0.611660765882233
1008,0.620269051605903
1009,0.628486546875154
1010,0.636511131520382
1011,0.644427538899485
1012,0.652037943671544
1013,0.659216657323875
1014,0.666094309490681
1015,0.672756654298625
1016,0.679136107988763
1017,0.685352361003241
1018,0.691803985959797
1019,0.698770502169858
1020,0.706289017583215
1021,0.714533038062287
1022,0.723930590786437
1023,0.734786333775902
1024,0.747208326468965
1025,0.761491209828506
1026,0.77773191563936
1027,0.794380507575382
1028,0.80760541583058
1029,0.813228217673608
1030,0.809886115379668
1031,0.800478087466573
1032,0.790635094792367
1033,0.785543832189976
1034,0.787378339049364
1035,0.794930006589443
1036,0.805314177225741
1037,0.815975772648615
1038,0.82553803226868
1039,0.833536949023195
1040,0.840185991755574
1041,0.846235739347828
1042,0.8523698041055
1043,0.858586232973539
1044,0.864537596398529
1045,0.870307157674284
1046,0.876274865967132
1047,0.882358482017403
1048,0.888075895943705
1049,0.893384617161168
1050,0.898742843662608
1051,0.904302352684215
1052,0.909788095600563
1053,0.915237538372123
1054,0.92107557251879
1055,0.927320604877936
1056,0.933436299806405
1057,0.9390758873548
1058,0.944319740893862
1059,0.949130084761904
1060,0.953287583681722
1061,0.95697566670674
1062,0.96073885395011
1063,0.964696010198111
1064,0.968424893621103
1065,0.971664726706214
1066,0.974494451777055
1067,0.976865446146435
1068,0.97871609118685
1069,0.980576728101691
1070,0.983243694720005
1071,0.986752038580766
1072,0.990371757607765
1073,0.993620730802264
1074,0.996519401601242
1075,0.998845538209176
1076,1
1077,0.999779628664695
1078,0.99844455759016
1079,0.995976371711626
1080,0.992102529938917
1081,0.987073586178063
1082,0.981637234719769
1083,0.976157184935721
1084,0.970580943786175
1085,0.965201425943296
1086,0.960564348820516
1087,0.956627644266444
1088,0.95283956070207
1089,0.949070408097758
1090,0.945666935191908
1091,0.942599308555205
1092,0.939393620451467
1093,0.935981480199179
1094,0.932785628488361
1095,0.929886841151541
1096,0.926884743433
1097,0.923646468690477
1098,0.920397297321088
1099,0.91699980244539
1100,0.912981612257644
1101,0.908332613352722
1102,0.903553125783128
1103,0.898760911266206
1104,0.893427271133237
1105,0.887259323655065
1106,0.880403327571457
1107,0.872852585207106
1108,0.864344980056999
1109,0.854935774853658
1110,0.845011423603855
1111,0.834637190684729
1112,0.823606524175846
1113,0.812149466403246
1114,0.8008981015805
1115,0.790157845535805
1116,0.779817510791901
1117,0.769955841848288
1118,0.760900902250057
1119,0.752693358762611
1120,0.745054059557678
1121,0.737884355778489
1122,0.731204259364702
1123,0.724611699363018
1124,0.717436569499722
1125,0.709491205804746
1126,0.701117088824802
1127,0.692507348957753
1128,0.683641402708653
1129,0.674980915396321
1130,0.667474124855045
1131,0.661556695151032
1132,0.656746049256708
1133,0.652388714576457
1134,0.648257869565725
1135,0.644285018806744
1136,0.640283668703545
1137,0.636192017899059
1138,0.632199850516176
1139,0.628441785692579
1140,0.624852306969376
1141,0.621459531170952
1142,0.618498426761942
1143,0.61608426846266
1144,0.614101014943845
1145,0.612504636094079
1146,0.611421933558887
1147,0.610842817960466
1148,0.610514334962891
1149,0.610275476232933
1150,0.610168426470249
1151,0.610087540992856
1152,0.609621952130931
1153,0.608408939647069
1154,0.606368041376632
1155,0.60352227988993
1156,0.599903376360976
1157,0.595702767545441
1158,0.591250230412726
1159,0.586725369031908
1160,0.582139475620444
1161,0.577623562428494
1162,0.573442251399034
1163,0.569689963947385
1164,0.566251847085885
1165,0.563107693622809
1166,0.560378621424724
1167,0.558018718511221
1168,0.555739616547727
1169,0.553348005038766
1170,0.550921474218564
1171,0.54858889609715
1172,0.546401278216544
1173,0.544463051951512
1174,0.542934388689931
1175,0.541803897326543
1176,0.540847336541433
1177,0.53985933009762
1178,0.538724409006478
1179,0.537292005772768
1180,0.535496156136908
1181,0.533641397073263
1182,0.532251552311768
1183,0.53153541903401
1184,0.531283802477629
1185,0.531331279646825
1186,0.531791287712738
1187,0.53282254969208
1188,0.534454110203452
1189,0.536742633274145
1190,0.539855501093925
1191,0.543838766827726
1192,0.54863210205695
1193,0.554374321466715
1194,0.561404020075972
1195,0.569893178697786
1196,0.579697113077697
1197,0.59073653551136
1198,0.603141153665585
1199,0.616739832263471
1200,0.630573264487823
1201,0.643088812233008
1202,0.652613838511436
1203,0.657794647348007
1204,0.65829176975837
1205,0.6551075270143
1206,0.649852652013237
1207,0.643384898521568
1208,0.63545640258439
1209,0.625643501101687
1210,0.613859747271857
1211,0.600141213194168
1212,0.584546525099459
1213,0.567475230141827
1214,0.549692601531146
1215,0.531846867986077
1216,0.514352732852064
1217,0.497709986538045
1218,0.482537043358211
1219,0.469187383800848
1220,0.457620832936308
1221,0.447643175174869
1222,0.439046802424922
1223,0.431527987145745
1224,0.424680352899422
1225,0.418266771684256
1226,0.412308929465161
1227,0.406831074408446
1228,0.401707989922259
1229,0.39680124824914
1230,0.392092969469985
1231,0.387569909534038
1232,0.383142620746422
1233,0.378811780041632
1234,0.374742055611817
1235,0.371059268798851
1236,0.367688741358141
1237,0.364507188158958
1238,0.361546642949539
1239,0.358899155024676
1240,0.356519807882013
1241,0.354255034050258
1242,0.352000711764942
1243,0.349726754209526
1244,0.347414812958896
1245,0.345099361218254
1246,0.342893490886276
1247,0.340838119391027
1248,0.338775220422817
1249,0.3364842699224
1250,0.333898600756426
1251,0.331098556145091
1252,0.328163778864108
1253,0.325135044532571
1254,0.322076530277554
1255,0.319053666497017
1256,0.316051675462629
1257,0.313006434196108
1258,0.309893554130762
1259,0.306701260300089
1260,0.303379452534428
1261,0.299962381593605
1262,0.296684309576528
1263,0.293835179654514
1264,0.291532743714915
1265,0.289748799961886
1266,0.288515319689105
1267,0.287908036939397
1268,0.287853983699046
1269,0.288116278736158
1270,0.288478027437914
1271,0.288824453634461
1272,0.289067585186387
1273,0.28918460098534
1274,0.289328980467902
1275,0.289722636687443
1276,0.290429516417192
1277,0.291366326974617
1278,0.292518145080308
1279,0.293939135905761
1280,0.295513936440183
1281,0.296962408273015
1282,0.298147360484619
1283,0.299173318971376
1284,0.300155609543886
1285,0.30111552367244
1286,0.302136155588562
1287,0.303361009500494
1288,0.304753336602287
1289,0.306091003123623
1290,0.307275113645667
1291,0.308439133884103
1292,0.30971567235938
1293,0.311110506387644
1294,0.312641590047317
1295,0.314363985492313
1296,0.316196566927649
1297,0.31794020039084
1298,0.319536713648506
1299,0.321120941579162
1300,0.322785139999379
1301,0.324501917616683
1302,0.326299066389317
1303,0.328262745400363
1304,0.33035289212994
1305,0.332448190881549
1306,0.334596842118771
1307,0.336961143752298
1308,0.339498719583443
1309,0.341978758513001
