"Wave Length","Absorbance"
450,0.872183568449551
451,0.880759699134443
452,0.886023938205873
453,0.891571469530315
454,0.901561605480806
455,0.911038569185821
456,0.913949896863162
457,0.912848684954136
458,0.914312739585361
459,0.917002167795593
460,0.916722478471303
461,0.916249513028387
462,0.91897514039455
463,0.921907886315219
464,0.921253216237403
465,0.919212983781959
466,0.918376281696017
467,0.915827739508444
468,0.908840226416359
469,0.901552943611544
470,0.89789366994169
471,0.893516677934161
472,0.882172670864443
473,0.866555994519184
474,0.853513756456058
475,0.84211366024835
476,0.828304093746971
477,0.812953112476311
478,0.798601263389535
479,0.783959630432302
480,0.767390674284096
481,0.751249698752576
482,0.737595421783173
483,0.723382675197889
484,0.705141991431459
485,0.685184891126073
486,0.667688099337554
487,0.652293757227099
488,0.636951704981699
489,0.622485764741193
490,0.610174999074425
491,0.598097091688392
492,0.58390451171453
493,0.569186303154281
494,0.55676183700094
495,0.546028638908992
496,0.535459355273033
497,0.526164753100818
498,0.519569097144757
499,0.514218516262057
500,0.508342377948581
501,0.503333914972592
502,0.500996745670641
503,0.499289418268821
504,0.49560967303234
505,0.491272080282644
506,0.488591797892543
507,0.4868217078195
508,0.483863529473461
509,0.480197048090472
510,0.477370052103221
511,0.474933968264179
512,0.471958531989651
513,0.469129165079095
514,0.466999258119744
515,0.463899966498129
516,0.458629763776818
517,0.453446500339584
518,0.451191993007361
519,0.450574703616621
520,0.448656912517321
521,0.445780280903813
522,0.443906805603251
523,0.443050289620371
524,0.442239317153579
525,0.441810472381632
526,0.442128944834645
527,0.441773211000369
528,0.440049963568911
529,0.43889276476408
530,0.439628294242388
531,0.440882959274669
532,0.44109844083198
533,0.441051615320045
534,0.441891583435834
535,0.442597303486193
536,0.441931035995376
537,0.440892938472481
538,0.440767181972466
539,0.440540090646477
540,0.439176716113181
541,0.438006834297838
542,0.438442593006891
543,0.439388798152541
544,0.439561898998921
545,0.440047518842308
546,0.44195013122204
547,0.443705917389535
548,0.44369839158811
549,0.443288457448273
550,0.444193253106498
551,0.445450901026915
552,0.445676032560548
553,0.445950663202168
554,0.447583115470582
555,0.449465474178857
556,0.450298486901054
557,0.451359167394948
558,0.454055199096281
559,0.456887434500067
560,0.457740894304672
561,0.457274187787698
562,0.457290936949701
563,0.457640620934157
564,0.457642054091115
565,0.458377781660714
566,0.460752775899133
567,0.463132174625736
568,0.463847707622102
569,0.464093664525914
570,0.465579858898
571,0.467328692570652
572,0.467816008607171
573,0.46798399370108
574,0.469171855735524
575,0.47037572909206
576,0.470095367297106
577,0.469425952889876
578,0.470100195587959
579,0.471418676970036
580,0.472018042158001
581,0.472617764380398
582,0.474221948569993
583,0.475547463541404
584,0.475174838688352
585,0.474382146564311
586,0.475342640126152
587,0.477861982537282
588,0.480398898159729
589,0.482650802055502
590,0.484952310362475
591,0.486498258237149
592,0.4867171022472
593,0.487051860906015
594,0.488860619864419
595,0.491146378932416
596,0.492578844484936
597,0.493818610801514
598,0.495751889153155
599,0.497273833792159
600,0.496962751781504
601,0.495600724585328
602,0.494567323781259
603,0.493280435747944
604,0.490679492229315
605,0.487554275028441
606,0.485105913530639
607,0.482555021203528
608,0.478522850122505
609,0.473599970434672
610,0.469210832332301
611,0.465105444481132
612,0.460457530100415
613,0.455903772539814
614,0.452468082776237
615,0.449786335608987
616,0.447609765892679
617,0.447681733063324
618,0.45154018509534
619,0.457358313424612
620,0.461524231166057
621,0.462646972191623
622,0.461964612965645
623,0.460552018289513
624,0.458022777873833
625,0.453414963750055
626,0.445652312958879
627,0.434020150286109
628,0.419609488797976
629,0.405425034301862
630,0.393919558552172
631,0.385264114399284
632,0.378865762121227
633,0.374977409856863
634,0.373523054932854
635,0.372919298351379
636,0.371864519663114
637,0.371167146819321
638,0.372021122262158
639,0.3737745744593
640,0.375386091008289
641,0.377795325742612
642,0.382497671166296
643,0.38841594614879
644,0.392260067932808
645,0.391566763033138
646,0.386082164398962
647,0.377229326665861
648,0.367704397182849
649,0.360603539275869
650,0.357049113783868
651,0.355205827859276
652,0.353030680672649
653,0.350795823430615
654,0.349551141056119
655,0.348874093862106
656,0.347819064264443
657,0.346850179367594
658,0.346725959434251
659,0.346858064225586
660,0.346564454590069
661,0.346437963354043
662,0.346893440601981
663,0.346937675313224
664,0.345250472662963
665,0.341436975760726
666,0.335574479335443
667,0.327981830113521
668,0.322921350417113
669,0.327060594496468
670,0.33640523759836
671,0.344629097236187
672,0.349686480263882
673,0.352811363784351
674,0.355573590615271
675,0.358063885247539
676,0.359759208745086
677,0.360935771300945
678,0.362024212510813
679,0.362671416376961
680,0.362453200412094
681,0.361682988243965
682,0.360783848635272
683,0.359925369794226
684,0.35942164761375
685,0.359964029974623
686,0.361976686661849
687,0.364995564400724
688,0.368268512024826
689,0.371629896850762
690,0.37545643354601
691,0.380014752733579
692,0.385350256033295
693,0.391677982172372
694,0.399209611194067
695,0.407874368160326
696,0.417778630145168
697,0.429301012826615
698,0.44238390656924
699,0.456043072307093
700,0.468925134020323
701,0.48000924799707
702,0.48818760829554
703,0.492095135397295
704,0.49146406477014
705,0.488348127517564
706,0.486416918444845
707,0.489150185295509
708,0.498915517061635
709,0.516144463112626
710,0.536970588680023
711,0.551877439263661
712,0.549492562600887
713,0.524140202410283
714,0.480589923724191
715,0.431002266255052
716,0.387243154960136
717,0.355385431474213
718,0.335291584942623
719,0.323719867316304
720,0.317530323743217
721,0.314825832439944
722,0.314437848204423
723,0.315429053813489
724,0.317215903000121
725,0.319547398437565
726,0.322021022614246
727,0.324058780838693
728,0.325535617415152
729,0.326878497025146
730,0.328338776020808
731,0.329684549188563
732,0.330814743813293
733,0.331996246144795
734,0.33329749813132
735,0.334484232978802
736,0.335608705149613
737,0.337081723251512
738,0.338905790973988
739,0.340443144164009
740,0.341225429528494
741,0.34145201592228
742,0.341449302506698
743,0.341222154471692
744,0.340844984282213
745,0.340674723969558
746,0.340837599356743
747,0.341064154315187
748,0.341341517108501
749,0.342112343553303
750,0.343516487706521
751,0.345080664170956
752,0.346523689476461
753,0.348208861871295
754,0.350357686559027
755,0.352479203801843
756,0.354078714987033
757,0.355361907070793
758,0.356747489320218
759,0.358257899819727
760,0.359838884839686
761,0.361739894127687
762,0.364093327958164
763,0.366595133909281
764,0.369047398107488
765,0.371746722238348
766,0.374966912145036
767,0.378560876922997
768,0.38243659771081
769,0.386817240698688
770,0.391564633746413
771,0.395812644914403
772,0.398818004631429
773,0.400763481611083
774,0.40231217974823
775,0.403853954583191
776,0.405586055694074
777,0.40774536911235
778,0.410241491004785
779,0.412520895519978
780,0.414257887486512
781,0.415751620734191
782,0.417270213510945
783,0.418521251351422
784,0.419161130555069
785,0.419286855879356
786,0.419004117000936
787,0.41807474055922
788,0.416472471969465
789,0.414738550411935
790,0.41332217292737
791,0.412076008411529
792,0.410799700829061
793,0.409702970830261
794,0.40886889464009
795,0.407859600945746
796,0.406357221028007
797,0.404665996550387
798,0.403129352786328
799,0.401603520033586
800,0.399934200355099
801,0.398382446157578
802,0.397205389390209
803,0.396399110584168
804,0.396115769151051
805,0.396542412192008
806,0.397033717047669
807,0.396262243665059
808,0.393796613674517
809,0.390744255359404
810,0.388317789050106
811,0.386532964595244
812,0.384876702899889
813,0.383432901436291
814,0.382574600481901
815,0.382170081319743
816,0.381803159517088
817,0.381343085466858
818,0.380774653291408
819,0.380000546383923
820,0.379299952473093
821,0.379375000002007
822,0.380436588513115
823,0.381894663906087
824,0.383472204633173
825,0.385828075992934
826,0.38927859636077
827,0.39252390217034
828,0.393498184784973
829,0.391128264236111
830,0.385865503778138
831,0.379125158735198
832,0.372702963930817
833,0.368080688098113
834,0.365617899451042
835,0.36466697858083
836,0.364676745623559
837,0.365648666224017
838,0.367447090046225
839,0.369526436139511
840,0.371764047772753
841,0.374744690713514
842,0.378830230131796
843,0.383771616582025
844,0.389580178910376
845,0.396615126569746
846,0.403970092137595
847,0.408901492113921
848,0.409214051116255
849,0.405934146188891
850,0.402621181749981
851,0.402241190473281
852,0.405478851915588
853,0.411444720648185
854,0.418929396066221
855,0.427061138722605
856,0.435595253007227
857,0.44483391801847
858,0.455056840819841
859,0.466128638079948
860,0.47795931777507
861,0.490926219760421
862,0.505454236761378
863,0.521584860799455
864,0.539322102716328
865,0.559033234465964
866,0.580970995111503
867,0.604740391077064
868,0.629507623450649
869,0.654124551882189
870,0.676416827447915
871,0.692953246592134
872,0.700607235734311
873,0.698205388824206
874,0.686367323960917
875,0.666256718264912
876,0.639401545012478
877,0.608102209345459
878,0.574748668376991
879,0.541177816705495
880,0.508921847763524
881,0.479086864463179
882,0.451197760265168
883,0.423023529497869
884,0.392825207995824
885,0.361568988654386
886,0.332574155002917
887,0.309317840227677
888,0.293851012293385
889,0.28625881331219
890,0.284797340184362
891,0.286834895399897
892,0.290214787783726
893,0.294020062042703
894,0.298004703571953
895,0.301884432558315
896,0.305446007072666
897,0.308786517883471
898,0.311966414195615
899,0.314697962178061
900,0.316736654783168
901,0.318258367208313
902,0.31954813548063
903,0.320677748844855
904,0.321816525727717
905,0.323436853099036
906,0.325815485992121
907,0.328650996068202
908,0.331552614048286
909,0.334580356898242
910,0.337982841854658
911,0.341734072707422
912,0.345654705362473
913,0.349684052620461
914,0.353696640713327
915,0.357366462417717
916,0.360545550357927
917,0.363491905183392
918,0.3664196394573
919,0.369142515116694
920,0.371442024154194
921,0.373425284525315
922,0.375190628889285
923,0.376504750747638
924,0.377194429928184
925,0.377583479261725
926,0.378185945626903
927,0.379229808236931
928,0.380746910387197
929,0.382782440330912
930,0.385220642568967
931,0.387780204561016
932,0.390501113959117
933,0.393836530607581
934,0.397847122229489
935,0.401616158937812
936,0.403946013043781
937,0.404466116457751
938,0.403746856654689
939,0.402617889503664
940,0.401734989303679
941,0.401488716249375
942,0.401847137860056
943,0.402393409968862
944,0.402827678882666
945,0.403320617043149
946,0.404173934402843
947,0.405400060106269
948,0.406854401697028
949,0.408509382012579
950,0.410313359967319
951,0.41206255995903
952,0.413694605876539
953,0.41545192800771
954,0.417496631056752
955,0.419623067303827
956,0.421620382002596
957,0.42361483963083
958,0.425784565761768
959,0.428036284637713
960,0.430278267987168
961,0.43270528684921
962,0.435477657155671
963,0.438378892450823
964,0.441164233636801
965,0.444002329914421
966,0.447189335390007
967,0.450580976969399
968,0.453628297831168
969,0.455864969486813
970,0.457152128527812
971,0.457671706394463
972,0.457953280065671
973,0.458688130960026
974,0.460209362530473
975,0.462300583274328
976,0.464636423399673
977,0.467148434398819
978,0.469801736420886
979,0.472410603949961
980,0.474970079011072
981,0.477825664989843
982,0.481187661204146
983,0.484738747679763
984,0.488062694797672
985,0.491173703747102
986,0.494309804429267
987,0.497489445863888
988,0.500633216667767
989,0.503867525058215
990,0.507343750515576
991,0.510986711663701
992,0.514779546307643
993,0.519035845472096
994,0.523993851432552
995,0.529362269602323
996,0.534633015333002
997,0.539708423917018
998,0.544853136756938
999,0.550244404318279
1000,0.555965628534148
1001,0.56223713185551
1002,0.569241004463118
1003,0.576801352399075
1004,0.584584826208471
1005,0.592496576761745
1006,0.600557619650114
1007,0.608576897903983
1008,0.616326193549083
1009,0.623892511939153
1010,0.631481579052309
1011,0.63900845481384
1012,0.646251216850396
1013,0.653243379553364
1014,0.660128157203225
1015,0.666786202475135
1016,0.673047113737026
1017,0.679117804540215
1018,0.685398998450889
1019,0.692040235029462
1020,0.699077752629543
1021,0.706797704114175
1022,0.715552385267198
1023,0.725473481004064
1024,0.736788552122815
1025,0.750108196254547
1026,0.765517450374097
1027,0.781216126543097
1028,0.793568575704715
1029,0.799119417770168
1030,0.796900492869527
1031,0.789362125279295
1032,0.781382310429409
1033,0.777729999952391
1034,0.780464509398341
1035,0.788352832940805
1036,0.798693693935408
1037,0.80930598098262
1038,0.819035846959221
1039,0.827340156163792
1040,0.834344828673031
1041,0.840817500399019
1042,0.847343694142655
1043,0.853709060587563
1044,0.859593234180388
1045,0.865349825324434
1046,0.871422410750184
1047,0.877478817480903
1048,0.882924594936038
1049,0.887959507940492
1050,0.893242377262014
1051,0.898818420983728
1052,0.904270529104149
1053,0.909671576886152
1054,0.915474845203061
1055,0.921637339181028
1056,0.927663386832446
1057,0.933318955339297
1058,0.938614933334772
1059,0.94334479473579
1060,0.947390466840406
1061,0.951244271131283
1062,0.955509310475633
1063,0.960064432802281
1064,0.964387264851359
1065,0.96835016641977
1066,0.972008122017338
1067,0.975033386228819
1068,0.977215260896393
1069,0.979209814754592
1070,0.981916142375025
1071,0.985367564105436
1072,0.988978208838926
1073,0.992502175743921
1074,0.995901016555296
1075,0.99863629159336
1076,1
1077,0.999964961761073
1078,0.998825724224217
1079,0.996384675978047
1080,0.992416323432178
1081,0.987533399026667
1082,0.982675783745632
1083,0.977975179806479
1084,0.973060898140405
1085,0.968083855541126
1086,0.963528707191136
1087,0.959360654520965
1088,0.955251938200048
1089,0.951342256531868
1090,0.947927373362369
1091,0.944714141427974
1092,0.941225542715769
1093,0.93766401125268
1094,0.934545858604094
1095,0.931787854548885
1096,0.92893494522883
1097,0.92595971976149
1098,0.923020176264405
1099,0.919784836508333
1100,0.915838382033271
1101,0.911408837449597
1102,0.906857148358218
1103,0.901901863908583
1104,0.895978807969058
1105,0.889311060111859
1106,0.882448624090077
1107,0.875228788697855
1108,0.867067217479904
1109,0.85794551484996
1110,0.848300480956565
1111,0.838190979794348
1112,0.827486100410317
1113,0.816573320501817
1114,0.806007377207774
1115,0.795761179492245
1116,0.785571083907795
1117,0.775709245590822
1118,0.766654115881573
1119,0.758325391675411
1120,0.750350634661155
1121,0.742791649861558
1122,0.735837154296219
1123,0.729071023198898
1124,0.721816304529142
1125,0.71398708618303
1126,0.705875051831469
1127,0.697368290177123
1128,0.688221630517778
1129,0.679021263871417
1130,0.670988409285987
1131,0.66468924494966
1132,0.659668737532452
1133,0.655285953376214
1134,0.65121995219891
1135,0.647215886025398
1136,0.643041997013871
1137,0.638789956344307
1138,0.634754693194594
1139,0.63100663807249
1140,0.627420133184841
1141,0.624043379822466
1142,0.62104738836477
1143,0.618373154680709
1144,0.615844679721713
1145,0.613551336917566
1146,0.611752378626398
1147,0.610484724035393
1148,0.609576238406509
1149,0.608952653466571
1150,0.60856030336236
1151,0.608086958107202
1152,0.60710277542514
1153,0.605430416334118
1154,0.603087418777177
1155,0.600036065042203
1156,0.596317419705062
1157,0.592230861283396
1158,0.588066739198279
1159,0.58378421149273
1160,0.579273582399697
1161,0.574738986528341
1162,0.570486447155621
1163,0.566532519347059
1164,0.56277307876996
1165,0.559357938351407
1166,0.556514894649981
1167,0.554125624256028
1168,0.551802780666844
1169,0.549322768005081
1170,0.546727167949275
1171,0.544119726864664
1172,0.541652456056951
1173,0.53956673244398
1174,0.537985085002673
1175,0.536748088991
1176,0.535629977900396
1177,0.534540240247032
1178,0.533324938132322
1179,0.531668318979578
1180,0.529532047337666
1181,0.527468244874503
1182,0.526099076987835
1183,0.52543271396238
1184,0.525046318556212
1185,0.524752235530825
1186,0.524710029712692
1187,0.525081602948939
1188,0.525935477999817
1189,0.527420955570959
1190,0.529740803321825
1191,0.53292605276251
1192,0.536947404297553
1193,0.541946285291984
1194,0.548098947545687
1195,0.55540713200368
1196,0.563792299062243
1197,0.573354917757444
1198,0.584181306168342
1199,0.595919790894891
1200,0.6077201806052
1201,0.618483926372893
1202,0.626933318728961
1203,0.631797654037412
1204,0.632654614369198
1205,0.630375724610933
1206,0.626338026455314
1207,0.621162566710374
1208,0.614593825540106
1209,0.606395291270702
1210,0.596558685968983
1211,0.58498918024371
1212,0.571592527931845
1213,0.556715291108625
1214,0.541081882577368
1215,0.525282072984026
1216,0.509741969768142
1217,0.494988529161723
1218,0.481534266396412
1219,0.469561751335049
1220,0.459030670201675
1221,0.449918156639215
1222,0.442116640470123
1223,0.435289760425339
1224,0.429038850711356
1225,0.423195106760058
1226,0.417738429066981
1227,0.412576725308394
1228,0.4076258768334
1229,0.402932846508536
1230,0.398525967087877
1231,0.394237314540832
1232,0.38988452217856
1233,0.385550566711609
1234,0.381458760162271
1235,0.377665137322401
1236,0.374073909926043
1237,0.370694723586239
1238,0.367690330821423
1239,0.365151615770593
1240,0.362956721681164
1241,0.360848464473443
1242,0.358589014999137
1243,0.356096761232551
1244,0.353502366706684
1245,0.351038099701142
1246,0.348810984975997
1247,0.346737466168576
1248,0.344698777496381
1249,0.342630460308431
1250,0.34042370406401
1251,0.337912644841619
1252,0.335074650930329
1253,0.3320976637127
1254,0.329157613781959
1255,0.326250666726088
1256,0.323318002150207
1257,0.320390230192923
1258,0.317504150514546
1259,0.314577451460181
1260,0.311504641743757
1261,0.308349789188977
1262,0.305331514429345
1263,0.302650514729318
1264,0.300420603499757
1265,0.298684607779058
1266,0.297440883678016
1267,0.296657389236894
1268,0.296309378936622
1269,0.29635827592519
1270,0.296666466119806
1271,0.297013136025575
1272,0.297253825924751
1273,0.297439329895292
1274,0.297729529994662
1275,0.298231968558228
1276,0.298965659856052
1277,0.299912241847255
1278,0.301054070718972
1279,0.302353681032724
1280,0.303719123373227
1281,0.305027393354326
1282,0.306208423061214
1283,0.307279254718111
1284,0.308308227415188
1285,0.309366807185352
1286,0.31050831586015
1287,0.311732941612954
1288,0.312965482715052
1289,0.314141682965409
1290,0.315300165337803
1291,0.316540389121437
1292,0.317913481415634
1293,0.319395152709892
1294,0.320957786300974
1295,0.322596678815246
1296,0.324277732109429
1297,0.325932452550252
1298,0.327531631131666
1299,0.329110111865199
1300,0.330714579380441
1301,0.332366621794932
1302,0.334101290978278
1303,0.335968777219684
1304,0.337993719862803
1305,0.340186050308344
1306,0.342575112159412
1307,0.345156136631107
1308,0.347797070804033
