"Wave Length","Absorbance"
450,0.814469090441954
451,0.820641467992774
452,0.824835446149217
453,0.828942146821765
454,0.83546146772252
455,0.841052238819482
456,0.84187551944261
457,0.840074555360224
458,0.840380331429355
459,0.841565699617607
460,0.840406229188921
461,0.839082815533495
462,0.840438174905698
463,0.842316308549615
464,0.841322610366865
465,0.838508275570449
466,0.836104735173978
467,0.83280391810553
468,0.826738519435256
469,0.820060328779704
470,0.814934250448563
471,0.808362116998143
472,0.796331125158664
473,0.781212787437634
474,0.768301987787122
475,0.757122380700887
476,0.74460348203835
477,0.731042405160606
478,0.718161022483907
479,0.705237090133815
480,0.691060724924124
481,0.676854918353338
482,0.66385063708703
483,0.650322519819023
484,0.634388694267486
485,0.617552338170924
486,0.602110132556188
487,0.587643028387664
488,0.573127130383116
489,0.559420391113438
490,0.547255652379401
491,0.535199594849238
492,0.522144184695968
493,0.510012484590218
494,0.500985144467223
495,0.493870809877296
496,0.486391763490417
497,0.478590894700898
498,0.471731860551569
499,0.46567985059555
500,0.45967429405011
501,0.454486842583768
502,0.451195618502894
503,0.448656864735802
504,0.44521320595877
505,0.441392749082097
506,0.438499394587398
507,0.436348935831711
508,0.434115123127197
509,0.432275069721856
510,0.431435338557168
511,0.430621537166221
512,0.428649236935814
513,0.425836926171745
514,0.422973627460643
515,0.41957157468672
516,0.415036602161209
517,0.410396708470904
518,0.406903683412044
519,0.403812227105317
520,0.400127281014231
521,0.39701215904336
522,0.395949866422903
523,0.396380751726655
524,0.39686847639152
525,0.39724524155798
526,0.397970505987377
527,0.398450369439021
528,0.398140964174517
529,0.398023890569502
530,0.398910273572268
531,0.39999068603177
532,0.400294913387174
533,0.400386686647884
534,0.401155913347539
535,0.401949662207592
536,0.401722515704196
537,0.400987219689498
538,0.400873572952405
539,0.401069668106315
540,0.400793175743533
541,0.400543959177272
542,0.40115458700083
543,0.402085130178061
544,0.402450862485811
545,0.40266410328255
546,0.403395432999192
547,0.404024539324804
548,0.403937744434169
549,0.404105065874956
550,0.405474455255924
551,0.407225218326549
552,0.408320521204542
553,0.409466020980149
554,0.411686250855689
555,0.414392809338197
556,0.416578698641828
557,0.41870481496227
558,0.421420728872588
559,0.423704377072437
560,0.424307082499955
561,0.423906819235387
562,0.423875826009876
563,0.424061036734681
564,0.423849032647266
565,0.424038130010017
566,0.425588294833142
567,0.427648209928842
568,0.4289497072806
569,0.429986375415745
570,0.431768529641251
571,0.433563437137729
572,0.434174249511728
573,0.434217273713862
574,0.434913500220504
575,0.435958085319316
576,0.436416000557467
577,0.43685788910375
578,0.438277534568211
579,0.43996616548517
580,0.44065917472022
581,0.440813543791303
582,0.441657842585064
583,0.442870653097143
584,0.443392285119865
585,0.443553271834848
586,0.444531977216488
587,0.446337192327725
588,0.448181973567883
589,0.450055542146634
590,0.452324626649275
591,0.454385727576388
592,0.455522896305642
593,0.456525631286876
594,0.458577853073497
595,0.461292401272937
596,0.463557525182082
597,0.465341753184291
598,0.467039842584752
599,0.468009680849715
600,0.467413051802379
601,0.465916720131598
602,0.464703719105297
603,0.463442585971353
604,0.461034273083307
605,0.457554401782713
606,0.453903022599018
607,0.450140836838997
608,0.445789357864919
609,0.441229015824125
610,0.437131853679921
611,0.433042096380837
612,0.428324795438996
613,0.423702497659313
614,0.420375252332274
615,0.418373015997785
616,0.417388414193706
617,0.41843035776373
618,0.422582924413188
619,0.428400660637219
620,0.432602540373969
621,0.433486783992536
622,0.432135712946837
623,0.43018501716253
624,0.42763789708197
625,0.422971813603943
626,0.414443253667348
627,0.401617055168469
628,0.386399541391156
629,0.372149447645061
630,0.361201967543474
631,0.353504163121722
632,0.347963966677142
633,0.344189155151379
634,0.342144174285204
635,0.341101467257413
636,0.340259757147234
637,0.339888471585632
638,0.340627037433323
639,0.342176254538337
640,0.344027466215891
641,0.346932328496486
642,0.351935498840019
643,0.357992769036482
644,0.361926753750432
645,0.360951185743951
646,0.354630605567852
647,0.344903938938291
648,0.335010039504372
649,0.327831036674189
650,0.324046753453956
651,0.321961776205162
652,0.319885887513079
653,0.317928797248867
654,0.316762298633888
655,0.315965668292942
656,0.314760344372019
657,0.313537300579639
658,0.313101768902617
659,0.31326921414583
660,0.313469076868959
661,0.313781168469441
662,0.314260541055313
663,0.31427644021574
664,0.312957284272949
665,0.309871020654355
666,0.30494743822806
667,0.298647917262851
668,0.29468164641688
669,0.298733359940453
670,0.307207930881555
671,0.314741403127857
672,0.319820178173586
673,0.323114763070891
674,0.325615398859237
675,0.32765509684224
676,0.32933202409266
677,0.330870553137643
678,0.332227370486336
679,0.332925761699442
680,0.33271947086982
681,0.331908215130016
682,0.330848612742463
683,0.329903841164612
684,0.329542585611621
685,0.330155575227508
686,0.33181118736221
687,0.334279165553719
688,0.337367479384329
689,0.341040644466238
690,0.345306349286173
691,0.350149709547434
692,0.35562573989852
693,0.362018122725506
694,0.369650574967387
695,0.37867051230985
696,0.389229882463295
697,0.401436493075134
698,0.415038764814925
699,0.429240465563464
700,0.44282992514881
701,0.454427620631787
702,0.462478794183081
703,0.465696275832485
704,0.464238888296655
705,0.460346840444456
706,0.457613873188978
707,0.459572000490679
708,0.468741656322933
709,0.485512262083444
710,0.505895135029986
711,0.520493425336745
712,0.518219097612627
713,0.493612085564239
714,0.451488156291534
715,0.403783947431064
716,0.361804071269545
717,0.331026380283349
718,0.311184057971681
719,0.299436976289686
720,0.293090846035583
721,0.29033827263291
722,0.289874291757063
723,0.290668292736602
724,0.292087087355469
725,0.293862244793657
726,0.295781622719765
727,0.297618690523412
728,0.299378673127518
729,0.301263747382865
730,0.303271280505126
731,0.30507071688083
732,0.306422984959261
733,0.307437203648307
734,0.308358022330888
735,0.309382416332302
736,0.310638315504172
737,0.31210379132242
738,0.313531372568126
739,0.31466626434598
740,0.315519936657768
741,0.316206390497827
742,0.316575420038747
743,0.316353128877009
744,0.315667656904749
745,0.315071034613457
746,0.314958781298531
747,0.315284108690508
748,0.315913433953977
749,0.316882926466764
750,0.318174694901661
751,0.319603192539582
752,0.321104841703056
753,0.322832986690451
754,0.324801122306965
755,0.326750486936801
756,0.328528836322238
757,0.330272859893991
758,0.332054991122189
759,0.333724479814043
760,0.335280676947081
761,0.337054185542999
762,0.339295800054345
763,0.341892379170979
764,0.344691755475392
765,0.34778649509935
766,0.351291974767393
767,0.355188377947867
768,0.359582080653552
769,0.36470584000206
770,0.370326218609934
771,0.375495562521736
772,0.379296354003163
773,0.381667417291352
774,0.383248771533592
775,0.384680905332888
776,0.386332806154105
777,0.388384515654979
778,0.39076255671188
779,0.393139381295044
780,0.395283985681971
781,0.397252026355815
782,0.399028041104567
783,0.400255254262623
784,0.400608958020778
785,0.400221582042029
786,0.399459447465969
787,0.398485339288165
788,0.397310765453915
789,0.396041023570968
790,0.394792477273723
791,0.39355215457624
792,0.392325350607079
793,0.3912031113385
794,0.390093604533308
795,0.388675591356935
796,0.386842915024213
797,0.384917973751378
798,0.3832125346492
799,0.381684560275081
800,0.380233983424858
801,0.379003425550538
802,0.378187838508264
803,0.377858277985808
804,0.378083149434172
805,0.378756258239107
806,0.379140961863049
807,0.378160296381761
808,0.375539673113323
809,0.372236334297706
810,0.369411200507539
811,0.367375144128455
812,0.365824002136703
813,0.364592282180558
814,0.363686849471112
815,0.362959307083383
816,0.362231624442973
817,0.361542358013618
818,0.360954226148386
819,0.360411566057351
820,0.360063508966583
821,0.36035184775067
822,0.361476869316471
823,0.363190659519849
824,0.365449957453128
825,0.368702359745571
826,0.37289161481761
827,0.37653995588261
828,0.377518248234682
829,0.374685178094044
830,0.368569098153119
831,0.360857289921611
832,0.353575239865991
833,0.348283978708828
834,0.345414066097905
835,0.344373734152391
836,0.344459478052938
837,0.345422421089946
838,0.347128752167552
839,0.349254752987531
840,0.3517076755526
841,0.354869241111983
842,0.359085363521547
843,0.364361522614354
844,0.370794954511527
845,0.378469688109032
846,0.386200633287896
847,0.391195412201023
848,0.391287173140769
849,0.387590797155672
850,0.383995985869195
851,0.383844620853008
852,0.387749360930392
853,0.394344596670818
854,0.402162411592456
855,0.410512855856986
856,0.419292918231047
857,0.428672516196537
858,0.438912940424095
859,0.450172877060824
860,0.46254462149889
861,0.476211726106519
862,0.49135889475047
863,0.507980746169526
864,0.526007235051921
865,0.545637321321445
866,0.567225153531796
867,0.5908075756115
868,0.615785361731429
869,0.640731004747866
870,0.66302907366269
871,0.679024553490774
872,0.685524007709076
873,0.681429044334325
874,0.667752659331931
875,0.646205166221147
876,0.618501515672298
877,0.586696316700154
878,0.553037417340298
879,0.519532515452282
880,0.487763409007403
881,0.458537816904587
882,0.431130965957633
883,0.403421648909388
884,0.37385584328086
885,0.343388759469471
886,0.315237169103652
887,0.292779782738211
888,0.277823718160657
889,0.270167741524496
890,0.268124953923976
891,0.269474197931519
892,0.272356706818154
893,0.275799969593775
894,0.279470120998177
895,0.283155226514587
896,0.28664004412506
897,0.289843800696375
898,0.292766154165506
899,0.295277760322941
900,0.297209386098972
901,0.298638520316797
902,0.29987980368611
903,0.301209741597935
904,0.302762852325886
905,0.304630897803451
906,0.306857599315088
907,0.309368606549676
908,0.312099603749446
909,0.315153161252431
910,0.318663431009481
911,0.3225671159859
912,0.326664198910613
913,0.33083962951987
914,0.335033793510595
915,0.339068340937303
916,0.342708867562607
917,0.345870634747729
918,0.348588105654151
919,0.350854568004202
920,0.352688058671839
921,0.354255942652632
922,0.355714660309004
923,0.356996667433603
924,0.357980508243559
925,0.35881242751938
926,0.359831922873845
927,0.361228692178839
928,0.362976754986111
929,0.365037340213869
930,0.36742538144104
931,0.370165574126226
932,0.373365424854863
933,0.377182932032016
934,0.381410379107592
935,0.385168748432205
936,0.387399713329053
937,0.387774354782323
938,0.386926478406815
939,0.385820403074476
940,0.385105946316768
941,0.384985420135947
942,0.385341801486032
943,0.385889102176776
944,0.386424061211702
945,0.387034981131574
946,0.387955075780924
947,0.389243906642078
948,0.390763016136679
949,0.392416295315482
950,0.394197031923856
951,0.396032444745027
952,0.39781810481653
953,0.399609934314016
954,0.401573708420261
955,0.403714347881441
956,0.405864744936193
957,0.40796011916428
958,0.410125007827075
959,0.412457815262833
960,0.414910144495714
961,0.417417626365171
962,0.419977296041015
963,0.4225665422283
964,0.425167049546542
965,0.427899898353187
966,0.430947895314941
967,0.434245599272917
968,0.437353817732116
969,0.439723244615249
970,0.441077449909025
971,0.441598603558145
972,0.441853008244484
973,0.442466508955572
974,0.443713542621371
975,0.445435472917402
976,0.447390903192066
977,0.449559725616045
978,0.451997937603579
979,0.454597876081502
980,0.457227481683077
981,0.459978860203543
982,0.463031483543749
983,0.466317895039198
984,0.469581124680392
985,0.472716531993721
986,0.475821988516387
987,0.478954931041295
988,0.482078452506085
989,0.485237724566336
990,0.488570085751934
991,0.492156693688162
992,0.496071237130397
993,0.500495539765995
994,0.505533638045878
995,0.51095530938021
996,0.516374255279965
997,0.521705550424102
998,0.527201448596999
999,0.533091772818248
1000,0.53947370158166
1001,0.546482190495787
1002,0.554235788938728
1003,0.562562037991197
1004,0.571089335051863
1005,0.579665096203948
1006,0.588393863779053
1007,0.597250100743155
1008,0.605988380937303
1009,0.614481050417379
1010,0.622788644914089
1011,0.630843977937071
1012,0.638431521651094
1013,0.645565551939855
1014,0.652522327869121
1015,0.659414944186483
1016,0.666126152201903
1017,0.672727368576472
1018,0.679557819416524
1019,0.686808950678882
1020,0.694464860134339
1021,0.702734371148808
1022,0.712134070851989
1023,0.723068793491798
1024,0.735743594140177
1025,0.750462952537403
1026,0.767150922679731
1027,0.784016911076364
1028,0.797219109769154
1029,0.802897200438877
1030,0.800027744830523
1031,0.791510172472087
1032,0.782671758001499
1033,0.778422503456303
1034,0.780901412375525
1035,0.789036200955264
1036,0.8000541268623
1037,0.811372548997443
1038,0.821484578783649
1039,0.829835359686812
1040,0.836679836450436
1041,0.842879820340357
1042,0.849180280856025
1043,0.855592196672983
1044,0.861818860397778
1045,0.868006562539523
1046,0.874494351895719
1047,0.881066473911993
1048,0.887169800569244
1049,0.89281407164359
1050,0.898512172652359
1051,0.904385115463789
1052,0.910107241457218
1053,0.915712409161258
1054,0.921647037401522
1055,0.927965639849968
1056,0.934191855550611
1057,0.939983438348008
1058,0.945285586454202
1059,0.949907754001677
1060,0.953681288852659
1061,0.957033792495935
1062,0.960713726140769
1063,0.964896524842159
1064,0.96914988411964
1065,0.973115432618822
1066,0.976568508423689
1067,0.979084149553451
1068,0.980523304314351
1069,0.981733691371976
1070,0.983871646821176
1071,0.987074789815227
1072,0.99055200209703
1073,0.993771778698458
1074,0.996682058092729
1075,0.998948111778494
1076,1
1077,0.999849406577043
1078,0.998848907301118
1079,0.996733808857587
1080,0.992934182063335
1081,0.987772514433643
1082,0.98235384152794
1083,0.977201896351434
1084,0.972020880231074
1085,0.966748848147125
1086,0.961828297468779
1087,0.957406316950508
1088,0.953181651007163
1089,0.94911860195733
1090,0.945485176500511
1091,0.942161647577051
1092,0.938707515612964
1093,0.935138074447841
1094,0.931845144727278
1095,0.928770685586873
1096,0.925450094048563
1097,0.921849489081796
1098,0.918331202080983
1099,0.914814344661419
1100,0.910784363392012
1101,0.90613405897461
1102,0.901160688889352
1103,0.8958543240825
1104,0.889810229065376
1105,0.883031970950724
1106,0.875894277167139
1107,0.868330981346808
1108,0.859899022513686
1109,0.850567890810704
1110,0.840746341335394
1111,0.830529683454689
1112,0.819741268957286
1113,0.808680360408024
1114,0.798013466422914
1115,0.787941795687846
1116,0.778164614646919
1117,0.768636372412895
1118,0.759689784383899
1119,0.751446804992749
1120,0.743724035505521
1121,0.736493795771732
1122,0.729790231503115
1123,0.723177237530204
1124,0.715958220647457
1125,0.707959452615494
1126,0.699548290287592
1127,0.690924809076013
1128,0.682056971430497
1129,0.67337050064416
1130,0.665758797381764
1131,0.659648255977655
1132,0.654636126801722
1133,0.650158767068522
1134,0.645981629599785
1135,0.641964716253048
1136,0.637919137301282
1137,0.633868296072906
1138,0.630041793156648
1139,0.626495501094817
1140,0.623059166503393
1141,0.619732417499665
1142,0.616773789325087
1143,0.614303411807449
1144,0.612180580787198
1145,0.610334855622948
1146,0.608887666971304
1147,0.607877124511396
1148,0.607160358953321
1149,0.606661218539634
1150,0.606390772099618
1151,0.606157392225499
1152,0.605545566001148
1153,0.604256538116984
1154,0.602204140587644
1155,0.599321931070644
1156,0.595613208116195
1157,0.591357531296698
1158,0.586956806169143
1159,0.582555267431418
1160,0.57811070639101
1161,0.573774549151053
1162,0.569841356542233
1163,0.566351354663634
1164,0.563095733143734
1165,0.560018647777824
1166,0.557267581401473
1167,0.554835147297848
1168,0.55248132939914
1169,0.550077566036492
1170,0.547730553306016
1171,0.545521294281867
1172,0.543422347752859
1173,0.541496925870537
1174,0.539899223251946
1175,0.538619975211642
1176,0.537462724395267
1177,0.536294055857555
1178,0.535071169385788
1179,0.533663785660608
1180,0.531967483833091
1181,0.530207391160199
1182,0.528804027532476
1183,0.527887111810523
1184,0.527258992533799
1185,0.526845306864673
1186,0.526827960600775
1187,0.52733309554725
1188,0.528305673905484
1189,0.529782691920562
1190,0.532015467838219
1191,0.535166572678033
1192,0.539223730595925
1193,0.544272784327896
1194,0.550562211550699
1195,0.55822364871743
1196,0.567128737705896
1197,0.577190235601427
1198,0.588466628592648
1199,0.600737796652757
1200,0.613110067405046
1201,0.624175084291617
1202,0.632398541733191
1203,0.636554662832838
1204,0.636441446569066
1205,0.633151861578623
1206,0.628258356778552
1207,0.622505463540037
1208,0.615585081761957
1209,0.607083759361488
1210,0.596932488869736
1211,0.585135824841625
1212,0.571678591889705
1213,0.556877440872263
1214,0.541426325641903
1215,0.525933103170665
1216,0.510787397743357
1217,0.496437379487624
1218,0.483405571734689
1219,0.471958046057127
1220,0.462044448237034
1221,0.453522699827921
1222,0.446199640826585
1223,0.439696955543734
1224,0.433539074263612
1225,0.427529626423103
1226,0.42182496002695
1227,0.416583317497643
1228,0.411752665805017
1229,0.407207472411705
1230,0.402884731272819
1231,0.398687500591063
1232,0.394457078172215
1233,0.390172479509795
1234,0.386007419328448
1235,0.382109768484519
1236,0.378471297697761
1237,0.375104232136573
1238,0.372192331840165
1239,0.369895759222198
1240,0.368079535835864
1241,0.366351062265376
1242,0.364346908036952
1243,0.361946734305689
1244,0.359294027599609
1245,0.356695428569537
1246,0.354412440427999
1247,0.352454534887245
1248,0.350584393667745
1249,0.348537090851785
1250,0.346187703548001
1251,0.34352624515923
1252,0.340610533914256
1253,0.337569061611335
1254,0.334542830446527
1255,0.331570456852573
1256,0.328588663116023
1257,0.325555964414985
1258,0.322491502098346
1259,0.31936477772986
1260,0.316082811834983
1261,0.312691932511853
1262,0.309470298174924
1263,0.306699742076358
1264,0.304445824498744
1265,0.302647811665852
1266,0.301336194400988
1267,0.30059792420268
1268,0.300379129889937
1269,0.300460714736863
1270,0.300622469287745
1271,0.300741064696495
1272,0.30077123315591
1273,0.30076567788879
1274,0.300885137000756
1275,0.301278581136928
1276,0.301960376335336
1277,0.30286140245926
1278,0.303966029147097
1279,0.30527397540723
1280,0.306653131622341
1281,0.307893043767117
1282,0.308931465561441
1283,0.309881042334958
1284,0.310834462479554
1285,0.311788631089532
1286,0.312762787948022
1287,0.313819184717547
1288,0.314940286583546
1289,0.316057757439567
1290,0.317199227662057
1291,0.318456658981875
1292,0.319836388214838
1293,0.321285774886953
1294,0.322834140864075
1295,0.32453257759757
1296,0.326284887925679
1297,0.327931270539249
1298,0.329491598021607
1299,0.331129037970972
1300,0.332904068045565
1301,0.334747673319817
1302,0.336658100445037
1303,0.33871225143181
1304,0.340892415082493
1305,0.343113588919764
1306,0.34539783948176
1307,0.34782611351391
1308,0.350336024799833
