"Wave Length","Absorbance"
450,0.865301137978778
451,0.8742511195181
452,0.884521384083479
453,0.891430677961399
454,0.894148054909524
455,0.894705754563093
456,0.896045231603077
457,0.89810724909845
458,0.90197370279649
459,0.887340361354962
460,0.88600288755845
461,0.886472132218151
462,0.887152466680842
463,0.889025784650933
464,0.888519130128796
465,0.885697185144072
466,0.881776308602429
467,0.87747583459649
468,0.872380227963213
469,0.867085034502944
470,0.862152541611651
471,0.855521095867757
472,0.844210585708385
473,0.829261701186025
474,0.815070586844222
475,0.802780748777824
476,0.790269110151513
477,0.776726284157764
478,0.763230991187157
479,0.750037017309937
480,0.736147142005284
481,0.721248197088021
482,0.706159719344254
483,0.691239573176829
484,0.676048187308078
485,0.660571755510825
486,0.645525866123837
487,0.631359375255959
488,0.617878710270068
489,0.604840543305643
490,0.592149208564448
491,0.579539255572437
492,0.566823165162893
493,0.55466344347993
494,0.544225212152314
495,0.535655983809795
496,0.528131787658676
497,0.521067807621844
498,0.514614620175832
499,0.508984180654708
500,0.504037536125923
501,0.49985923298116
502,0.496720008084631
503,0.49418169767301
504,0.491431173623139
505,0.488307478022017
506,0.485320579147743
507,0.482696666048722
508,0.480014612368822
509,0.477197872343153
510,0.474758297800856
511,0.472881208857875
512,0.471063036662569
513,0.468738943655416
514,0.465908896461437
515,0.462555792759039
516,0.458377582913742
517,0.453591892754558
518,0.449303990937955
519,0.446153535685944
520,0.443544316275452
521,0.441039153325864
522,0.439162291498939
523,0.438367673354376
524,0.438233432153186
525,0.438131878964711
526,0.438055722378407
527,0.438251545299411
528,0.438581506752612
529,0.438877497346788
530,0.439275339532
531,0.439969139785534
532,0.440905491135023
533,0.441948648853136
534,0.443145719098062
535,0.444313844001477
536,0.444859878235513
537,0.444518863530347
538,0.443863383121091
539,0.443405264428896
540,0.443084717047751
541,0.442840589331615
542,0.443015428095227
543,0.443744062697717
544,0.44463605162295
545,0.445420972892884
546,0.446285228909675
547,0.447240440235189
548,0.447868017966566
549,0.448057233615503
550,0.448271129187267
551,0.448842321074073
552,0.449664147463629
553,0.450806284290035
554,0.452667125277822
555,0.455232088150729
556,0.45784580299842
557,0.460149805180486
558,0.462478252433743
559,0.464922127735194
560,0.466797105461122
561,0.467510427972179
562,0.467332177692449
563,0.466922926565561
564,0.466831930801395
565,0.467552350841137
566,0.469302211086906
567,0.471508895642688
568,0.473269108224941
569,0.474402724263052
570,0.475419605322778
571,0.476431667562303
572,0.477153675799569
573,0.477882334203959
574,0.479229962655515
575,0.480953340690808
576,0.481987043398995
577,0.482107082881971
578,0.482312697615652
579,0.483213870146311
580,0.48430410648444
581,0.485045410933069
582,0.485557964190028
583,0.485931380215828
584,0.485973526729872
585,0.485945805807777
586,0.486754937019152
587,0.488871701710055
588,0.491785313727347
589,0.494757774362786
590,0.497486135658589
591,0.499709639515754
592,0.501118780365391
593,0.502037329574167
594,0.503282624027853
595,0.505075168577589
596,0.506865906986482
597,0.508286079172706
598,0.509386843037546
599,0.509977669492909
600,0.509547340372667
601,0.508131457107631
602,0.506346080296795
603,0.50431890260305
604,0.501584158738487
605,0.498015767285225
606,0.494038588429996
607,0.489719820335555
608,0.484663293748471
609,0.479106775127096
610,0.47397505519092
611,0.469418560062308
612,0.464706597223081
613,0.459644514216284
614,0.455104400536544
615,0.451964654006231
616,0.450614592254244
617,0.451697321859004
618,0.455812116649771
619,0.461746249800118
620,0.466386468268382
621,0.467579270604614
622,0.466163609210871
623,0.464163488744457
624,0.461637331833406
625,0.456368059041561
626,0.44634465531195
627,0.431946682305883
628,0.415770335238126
629,0.400828515521574
630,0.389026022419954
631,0.380603207181625
632,0.374824562631496
633,0.371005354342478
634,0.36876292222185
635,0.3675924378552
636,0.366892859059686
637,0.366584097056224
638,0.367079465194532
639,0.368467905387627
640,0.370534390815252
641,0.373723595851764
642,0.378755117581864
643,0.384717922701062
644,0.388519113055049
645,0.387103685973013
646,0.380045284004562
647,0.369825571675569
648,0.359874522414979
649,0.352549785777405
650,0.348214929929463
651,0.345568917442781
652,0.343279448659856
653,0.34119625130379
654,0.339720397084407
655,0.338677115656574
656,0.337488735458566
657,0.336246240380585
658,0.335477053198801
659,0.335246186487463
660,0.335364042482737
661,0.335831440060847
662,0.33638414220831
663,0.336287627736123
664,0.334506532140579
665,0.330314081306872
666,0.323780117925132
667,0.316158112626685
668,0.311887244959235
669,0.317063080685227
670,0.326742729290538
671,0.33492841575187
672,0.340447256129393
673,0.344033096201541
674,0.346703990498812
675,0.349132062803648
676,0.351549498619425
677,0.353707463903036
678,0.355197487146813
679,0.355849388971617
680,0.355697911712442
681,0.354664827984637
682,0.352866285040989
683,0.351277078577418
684,0.350900177874101
685,0.351714411489823
686,0.353281828910554
687,0.355684281880526
688,0.359154968194455
689,0.36333672168258
690,0.36784682670147
691,0.373001357563006
692,0.379189121930764
693,0.386357285726684
694,0.394469904799078
695,0.403929694375874
696,0.415172494567348
697,0.42801049467396
698,0.441947133744936
699,0.456510883660727
700,0.470606448837045
701,0.482258745596764
702,0.489461597497578
703,0.491317145889512
704,0.488492265634483
705,0.48304726666587
706,0.478317147371107
707,0.478159004367872
708,0.485428062963715
709,0.500353528458011
710,0.518983871459528
711,0.532714600833926
712,0.531149398455657
713,0.508403480190143
714,0.468335366311584
715,0.422508523776831
716,0.382225220911452
717,0.352683753457694
718,0.333403733436505
719,0.321906173078751
720,0.315885830432921
721,0.313303047077138
722,0.312502295100622
723,0.312692345683817
724,0.313676784463774
725,0.315196614472396
726,0.316912389408134
727,0.31874287045526
728,0.320680277664742
729,0.322395059386178
730,0.323529755033987
731,0.324215083474897
732,0.324896505537904
733,0.325711709809979
734,0.326530297356366
735,0.327498794225152
736,0.32889855231589
737,0.33059100903774
738,0.332124893704939
739,0.333293725760351
740,0.334144398637595
741,0.334616016075361
742,0.334626754299557
743,0.334380548887166
744,0.334161416081594
745,0.333957241521744
746,0.333656863431452
747,0.333474951602059
748,0.333793767768872
749,0.33469557412727
750,0.335980553971713
751,0.3375231996171
752,0.339318928049554
753,0.341309288770326
754,0.343427580968463
755,0.3456753335771
756,0.347925195689346
757,0.349845080185154
758,0.351303970051881
759,0.352674250759609
760,0.354419917112066
761,0.356551589425793
762,0.3587915496499
763,0.36109647335016
764,0.363691993082292
765,0.366734133434472
766,0.370270704409272
767,0.374438291156475
768,0.379362583800418
769,0.384860837313175
770,0.390412995914657
771,0.39537603012647
772,0.399165014891341
773,0.401505506463499
774,0.402746148286589
775,0.403732809230329
776,0.405122706214218
777,0.406904316354057
778,0.408710268586577
779,0.410380154187649
780,0.412004141606407
781,0.413603687637325
782,0.415031117340593
783,0.416089940160655
784,0.416584652665351
785,0.416379510764766
786,0.415559429232153
787,0.414394693025266
788,0.413037640623739
789,0.411416537245798
790,0.409535636788876
791,0.407648444450536
792,0.405959907823812
793,0.404381843874849
794,0.402763051399342
795,0.401137431620803
796,0.39953831525901
797,0.397803625622653
798,0.395827655147565
799,0.393828098185611
800,0.392109192673307
801,0.39073032992444
802,0.389690134565999
803,0.389246504759362
804,0.389638987248438
805,0.390469773426711
806,0.390691640355838
807,0.389391333888346
808,0.386555977583217
809,0.383054939423452
810,0.379936590403468
811,0.377712265532535
812,0.376214803752668
813,0.37506657756039
814,0.374155599515577
815,0.373577272127965
816,0.373244068579296
817,0.372842090780188
818,0.37223256556355
819,0.371681745078745
820,0.371589071140048
821,0.372121522290608
822,0.373238469215568
823,0.374974476320401
824,0.377566970119974
825,0.381230190223874
826,0.385634231317463
827,0.389442222382828
828,0.390604522193236
829,0.387630442442115
830,0.38085018864346
831,0.372346641115785
832,0.3645513469285
833,0.358899524218147
834,0.355583751048138
835,0.3541567083651
836,0.354117441335658
837,0.35507694178731
838,0.356723232201773
839,0.35882503119517
840,0.361316007296463
841,0.364318492375196
842,0.3680903986486
843,0.372950957217191
844,0.379173944510759
845,0.38659902025791
846,0.393976822994656
847,0.398957207276491
848,0.399597220874307
849,0.396462669609514
850,0.39280913944319
851,0.392067549222742
852,0.395314625879601
853,0.401314936942386
854,0.408489296911678
855,0.416218744389069
856,0.424501742635678
857,0.433361421544414
858,0.442940711336866
859,0.453583971821046
860,0.465533859826641
861,0.478801100339184
862,0.493437592900588
863,0.509648421725399
864,0.527539959135248
865,0.547131785678284
866,0.56860880565716
867,0.592158934072167
868,0.6173083066436
869,0.642470116547072
870,0.664990590990696
871,0.681520624734782
872,0.688999090102283
873,0.685979042169669
874,0.673194384814125
875,0.652520913512153
876,0.625794620892319
877,0.594810919644227
878,0.561653372002466
879,0.528561919362404
880,0.497271781941164
881,0.468399888924053
882,0.441163230383596
883,0.413758952101453
884,0.384794991373964
885,0.354939345985049
886,0.327182119978055
887,0.305074095494155
888,0.290559333051298
889,0.283232336090866
890,0.281267553044724
891,0.282655699849048
892,0.28570228495415
893,0.289263726537065
894,0.292890195009828
895,0.296577604123622
896,0.300247908256092
897,0.303606531103334
898,0.30648530639453
899,0.308922819799276
900,0.310882587839341
901,0.312266420562709
902,0.313276116343065
903,0.314409196559307
904,0.315981095821523
905,0.317940727110234
906,0.320184070122212
907,0.322717837564133
908,0.325467889959215
909,0.32829377145449
910,0.331286504164016
911,0.334743911938269
912,0.338732160033111
913,0.342965616738398
914,0.347164769263991
915,0.351228087604174
916,0.355013306992712
917,0.358295713219593
918,0.361039528995844
919,0.363415731667562
920,0.365495061759068
921,0.367181847385357
922,0.368498149202531
923,0.369632687270303
924,0.37068020190363
925,0.371626616850503
926,0.372629889866126
927,0.374003576936204
928,0.375845283211992
929,0.377960219275508
930,0.380234764242061
931,0.382869002594299
932,0.386149263606519
933,0.390147768818343
934,0.394560593489357
935,0.398592771077042
936,0.401133098633438
937,0.401512524804983
938,0.400185834910098
939,0.39839916203077
940,0.397145962493822
941,0.396640221035422
942,0.396684225493182
943,0.39710213354922
944,0.39775143545027
945,0.398503216919128
946,0.399400955476513
947,0.400611892394348
948,0.402134337963445
949,0.403775979373351
950,0.405447486223861
951,0.407223999154092
952,0.40909154718576
953,0.410912378193888
954,0.412705738419232
955,0.414682036502984
956,0.416927777583656
957,0.419292019097317
958,0.421630838667036
959,0.423952799387233
960,0.426290206922014
961,0.428657129851879
962,0.43114498990227
963,0.433841500441751
964,0.436692959606466
965,0.439677173077283
966,0.443005730006199
967,0.446782917394282
968,0.450473449224304
969,0.453128258702167
970,0.454300186822469
971,0.454472139165695
972,0.45453924382809
973,0.455119626118604
974,0.456401757602766
975,0.458321345050463
976,0.460665888642516
977,0.463179117430412
978,0.465728398581355
979,0.468333428981063
980,0.471044218637767
981,0.473914120491856
982,0.477049529924875
983,0.480484185884773
984,0.484032095638289
985,0.48744499799281
986,0.490678127025397
987,0.493841326475535
988,0.496968261182037
989,0.500065853220081
990,0.503324263933825
991,0.507033118736865
992,0.511313864050735
993,0.51609703651761
994,0.521279653142188
995,0.526706155862213
996,0.53210941549404
997,0.537368201522772
998,0.542742585638861
999,0.548622716216624
1000,0.555136801678502
1001,0.562187519538109
1002,0.569731358380721
1003,0.577727528267344
1004,0.585961241868566
1005,0.59423341227374
1006,0.602605800451398
1007,0.611189272845567
1008,0.619837670715928
1009,0.628335251191219
1010,0.63668513711398
1011,0.644904634391444
1012,0.652743120818961
1013,0.659969488657694
1014,0.666736548918923
1015,0.673311472626446
1016,0.679688561338519
1017,0.685833151995646
1018,0.692064634916382
1019,0.698810853855001
1020,0.706228698091551
1021,0.714410635604358
1022,0.723726806759156
1023,0.734625479249387
1024,0.7473792979216
1025,0.762261850707651
1026,0.779190116250079
1027,0.796316136004461
1028,0.80942437047059
1029,0.814169594387187
1030,0.809556811410302
1031,0.799093898156516
1032,0.788625082068948
1033,0.783108274455375
1034,0.784606771851505
1035,0.792109956389058
1036,0.802775428353031
1037,0.813717103186277
1038,0.823312135788108
1039,0.83125721313341
1040,0.837974735532587
1041,0.844126636212315
1042,0.850262766274621
1043,0.85649713882173
1044,0.862637046116755
1045,0.868691769182801
1046,0.874901464520161
1047,0.881185042984818
1048,0.887074651612132
1049,0.892455745088527
1050,0.897817490206343
1051,0.903467973930332
1052,0.909097246746064
1053,0.914481820373181
1054,0.920010883758442
1055,0.926047135023194
1056,0.932295001326074
1057,0.938195480388784
1058,0.943476818070367
1059,0.948014909841675
1060,0.951689256435152
1061,0.954784546621736
1062,0.958071106695206
1063,0.962079681233587
1064,0.966619595904542
1065,0.971131812741007
1066,0.975032716599888
1067,0.977696459175831
1068,0.978899507924015
1069,0.97957340673878
1070,0.98133308491251
1071,0.984851176290095
1072,0.98924695696765
1073,0.993271093790138
1074,0.996410682368369
1075,0.998602096878285
1076,0.999748579181079
1077,1
1078,0.999667060154388
1079,0.99840054269749
1080,0.9952328299177
1081,0.989927684906457
1082,0.983647725913774
1083,0.977730596941557
1084,0.972475497325399
1085,0.967513400415827
1086,0.962665309389406
1087,0.957999018408216
1088,0.953570388588497
1089,0.949524849414099
1090,0.946012526149889
1091,0.942751008569434
1092,0.939164935053004
1093,0.935198093135961
1094,0.931438294272918
1095,0.928234409911468
1096,0.925270263392532
1097,0.922203977421172
1098,0.919061455767475
1099,0.915742593684596
1100,0.911813887582082
1101,0.907149307620198
1102,0.90213391744421
1103,0.897031877061952
1104,0.891489484201998
1105,0.885163957323221
1106,0.878147851254778
1107,0.870525820592265
1108,0.862148676709983
1109,0.853030386706355
1110,0.843475256034032
1111,0.8335398096871
1112,0.822968994739505
1113,0.811885547509943
1114,0.800951783385219
1115,0.790658340693902
1116,0.780947522519348
1117,0.771690325955186
1118,0.763013405505233
1119,0.754986439889898
1120,0.747461146937714
1121,0.740399453821057
1122,0.733848615231502
1123,0.727419936221591
1124,0.720332689339588
1125,0.712225296786901
1126,0.703459304794233
1127,0.694463498364074
1128,0.685360352218796
1129,0.676503324512103
1130,0.668718985938237
1131,0.662501033794977
1132,0.657451236379689
1133,0.652897081114972
1134,0.648619670515166
1135,0.644640482999484
1136,0.640770897804274
1137,0.636811312939702
1138,0.632909510988561
1139,0.629346069017603
1140,0.626132179413375
1141,0.623127320417534
1142,0.620351764527361
1143,0.617888794678591
1144,0.615702293735285
1145,0.613799678746493
1146,0.612365892325896
1147,0.611483778047666
1148,0.610918767537257
1149,0.610435566023593
1150,0.610080259856798
1151,0.609871074045582
1152,0.609428434872393
1153,0.608230840123029
1154,0.60605735736644
1155,0.602970050117659
1156,0.599092966755167
1157,0.59462752109295
1158,0.58990843778067
1159,0.585187494638525
1160,0.580511737663289
1161,0.575950270938826
1162,0.571727880322078
1163,0.567981148534398
1164,0.564595437677172
1165,0.561454775306598
1166,0.558636165995172
1167,0.556187598580309
1168,0.553919765820535
1169,0.551633641718194
1170,0.549358210718684
1171,0.547181430750386
1172,0.545079309826279
1173,0.543089221062146
1174,0.541431065950963
1175,0.540224340142572
1176,0.539246983502872
1177,0.538169978488935
1178,0.536854498093337
1179,0.535288204441094
1180,0.533487998354671
1181,0.531664681001656
1182,0.530223822766653
1183,0.529345113292456
1184,0.528801433743776
1185,0.528407750298992
1186,0.528366501202945
1187,0.528970148472651
1188,0.530199310454319
1189,0.53190592893087
1190,0.534210453565033
1191,0.537364347496392
1192,0.541467477014026
1193,0.546568942851826
1194,0.552854989150536
1195,0.56049611538248
1196,0.569410083818801
1197,0.579495817546141
1198,0.590841948492916
1199,0.603310581877268
1200,0.615960225327636
1201,0.627173148078009
1202,0.635273971869316
1203,0.639090049730277
1204,0.638530605369265
1205,0.634771480693729
1206,0.629524598935752
1207,0.623696496921472
1208,0.616964318183265
1209,0.608725753023727
1210,0.598805923586764
1211,0.58726177470222
1212,0.574083937291434
1213,0.559487552020424
1214,0.544152156605744
1215,0.528798434382204
1216,0.51384473735
1217,0.499641530564512
1218,0.486700679974402
1219,0.475400891223977
1220,0.465694735671257
1221,0.457289274533747
1222,0.449952036412324
1223,0.443463103201264
1224,0.437435344743591
1225,0.431545951548111
1226,0.425838092461667
1227,0.420546661816577
1228,0.41571591324708
1229,0.411174281077126
1230,0.40679467497878
1231,0.402523134333043
1232,0.398245397827698
1233,0.39390554858981
1234,0.38968007853136
1235,0.38580241842742
1236,0.382268697623893
1237,0.378957058437639
1238,0.375978826567318
1239,0.373595262874083
1240,0.371770272081954
1241,0.370062826257671
1242,0.36803731214549
1243,0.365605321577041
1244,0.362953782045394
1245,0.36035051453955
1246,0.358029529201658
1247,0.35605614905328
1248,0.354228127632134
1249,0.352226730071746
1250,0.349886803664087
1251,0.347231812882434
1252,0.344326644410518
1253,0.341235851656447
1254,0.338082883768846
1255,0.334987784844772
1256,0.331943064935543
1257,0.328865195623413
1258,0.325733076471261
1259,0.322534987677033
1260,0.31917129102283
1261,0.315644421202955
1262,0.312269824270319
1263,0.309436110141314
1264,0.30721294121263
1265,0.305419773829165
1266,0.304033725548143
1267,0.303227215861372
1268,0.303012197375077
1269,0.303120345373936
1270,0.303275452840017
1271,0.303363625512571
1272,0.303336517925501
1273,0.303207545089948
1274,0.303163106677326
1275,0.303448475646948
1276,0.3041083374376
1277,0.305002325018686
1278,0.306073731636009
1279,0.307369209613331
1280,0.308781494859816
1281,0.310043963579373
1282,0.311047548537248
1283,0.311916968293466
1284,0.3127579898249
1285,0.313578874961657
1286,0.314465744282916
1287,0.315541691846081
1288,0.31671668418488
1289,0.317788580214773
1290,0.318791116211357
1291,0.319944489367975
1292,0.32130029645499
1293,0.322742513082583
1294,0.324301654450454
1295,0.326110608946954
1296,0.328050935884684
1297,0.329807672740269
1298,0.331319617948442
1299,0.332821283690188
1300,0.334435174091867
1301,0.336069803275914
1302,0.337748716283742
1303,0.339665941951586
1304,0.341856881155758
1305,0.344159622999793
1306,0.346523572057957
1307,0.349032635035668
1308,0.351606089678379
1309,0.354080609230645
