"Wave Length","Absorbance"
450,0.783536804150455
451,0.789960075322446
452,0.796459407427784
453,0.800931534615441
454,0.804036390125166
455,0.806901190972221
456,0.809031006757061
457,0.81009751094876
458,0.80947383292994
459,0.807692777698078
460,0.799373118562542
461,0.797145586730636
462,0.797052749309893
463,0.796865951786584
464,0.79542426776597
465,0.792549293883045
466,0.789446126614023
467,0.785501579478293
468,0.779565827542251
469,0.772355750579936
470,0.765248647579053
471,0.757257724732031
472,0.746172477925464
473,0.732657264862108
474,0.71971718176291
475,0.707852721155727
476,0.695511701239547
477,0.682462318825185
478,0.669781196426669
479,0.657665054646755
480,0.645314444060291
481,0.632559771838882
482,0.619896180640623
483,0.607120831326784
484,0.593524130138208
485,0.579290723083904
486,0.565366491960056
487,0.552133020203781
488,0.539377630460829
489,0.527180061801992
490,0.515796458672907
491,0.504921481160409
492,0.493975624256221
493,0.483224149925991
494,0.47363450714829
495,0.465430480086116
496,0.458015948466685
497,0.451095157680545
498,0.445041561898324
499,0.440090664994136
500,0.435848015949886
501,0.431898050978118
502,0.428217989806599
503,0.424792828521488
504,0.421498824907553
505,0.418431946416607
506,0.41594512802831
507,0.414118428508988
508,0.412519175629954
509,0.410846284554581
510,0.409179304373722
511,0.407479633122749
512,0.405452895499551
513,0.402994957652571
514,0.400438430844675
515,0.397994714146419
516,0.395442661754127
517,0.392575379369607
518,0.389612279157493
519,0.386831687605023
520,0.384252685450789
521,0.382064805403183
522,0.380743580734611
523,0.380522796060132
524,0.381095055166469
525,0.381887335516773
526,0.382423522851692
527,0.382517759196281
528,0.382409009082364
529,0.382613070787477
530,0.383320469538693
531,0.384147662882896
532,0.384634001949377
533,0.384851408341975
534,0.385208430404317
535,0.385709021283075
536,0.385947582661227
537,0.385792566730311
538,0.385540577593449
539,0.385266815713174
540,0.38482864061651
541,0.384432665016539
542,0.384554201638577
543,0.385198958581021
544,0.38588716282731
545,0.386401817047896
546,0.386929200810948
547,0.387441726854285
548,0.387653776112956
549,0.387676047385223
550,0.387982396845132
551,0.38870947652947
552,0.389614560850882
553,0.390723354262027
554,0.392310883905869
555,0.394250774371348
556,0.396047547610413
557,0.397647874780416
558,0.399460207899554
559,0.401458269828931
560,0.403011746134293
561,0.403735845365903
562,0.403849548593795
563,0.403632240578376
564,0.403313138257201
565,0.403410913530469
566,0.40436825581751
567,0.405810845712844
568,0.406964636063008
569,0.407755335184347
570,0.408693963691923
571,0.409736433221236
572,0.410314648762032
573,0.410445370356269
574,0.410684491668714
575,0.41110369949172
576,0.411229844884502
577,0.411189075813535
578,0.411754738967735
579,0.413051254208532
580,0.41425457146359
581,0.414773147805062
582,0.414874436398917
583,0.414897985927981
584,0.414812209702626
585,0.414783449748005
586,0.415396175212674
587,0.416866735894535
588,0.418711610719512
589,0.420432517017169
590,0.421981552007475
591,0.423342845868463
592,0.424373814574194
593,0.425297173582403
594,0.42661169434731
595,0.428347844695322
596,0.430053674416468
597,0.431524491311142
598,0.432830804238686
599,0.433672664527834
600,0.433456210789777
601,0.432212124516043
602,0.430606352298569
603,0.428874740185716
604,0.426647684187698
605,0.423840084954159
606,0.42090022829621
607,0.417961679814966
608,0.414608333708713
609,0.410797847749724
610,0.40716463560312
611,0.404038427140263
612,0.401155734444557
613,0.39839074746044
614,0.396039491635889
615,0.39430684282279
616,0.39332644671148
617,0.393792859940836
618,0.396468783775206
619,0.400614235037313
620,0.40392495967701
621,0.404723981604743
622,0.403458106822674
623,0.401429237240383
624,0.398681560572756
625,0.393849124933549
626,0.385751990206277
627,0.374727776810414
628,0.36252796531221
629,0.351216801735545
630,0.342144064857583
631,0.335522380364517
632,0.330940416923705
633,0.32806106657339
634,0.326643065407939
635,0.326190408990432
636,0.326131072730385
637,0.326377235564263
638,0.32720664676109
639,0.328578247010244
640,0.330283479858686
641,0.332776094814092
642,0.336725430267707
643,0.341404400001804
644,0.344364280481218
645,0.34325420085426
646,0.337721307098852
647,0.3295426401093
648,0.321307333254857
649,0.315034846279115
650,0.311261107705725
651,0.308997304909575
652,0.307052012077973
653,0.305249985882922
654,0.303974585383279
655,0.303109778171687
656,0.302135001717491
657,0.301091350218546
658,0.30043790741614
659,0.300226205219106
660,0.300213836766138
661,0.300433225345165
662,0.300820463107522
663,0.300849665267738
664,0.299639353968683
665,0.296540059964566
666,0.29149865769726
667,0.285287083006483
668,0.281540320033563
669,0.285545742195829
670,0.293440518008652
671,0.300410815930195
672,0.305513196785701
673,0.309166777723179
674,0.311918630888638
675,0.314132102813468
676,0.315997819775898
677,0.317390964580303
678,0.318066878767262
679,0.318057536193605
680,0.317650851241037
681,0.317042264207242
682,0.316261272363488
683,0.315685549713814
684,0.315806212290453
685,0.31665236104784
686,0.318051826620252
687,0.320102910596287
688,0.322966486863183
689,0.326449870244841
690,0.330348490445494
691,0.33485307249026
692,0.340157826560119
693,0.34622125284585
694,0.353088930258756
695,0.361120298995957
696,0.370711445002022
697,0.381832801931971
698,0.394148580722457
699,0.407168958870733
700,0.419889690364145
701,0.430791055930797
702,0.43845117339163
703,0.442249301738261
704,0.44272025826357
705,0.441594168800618
706,0.441776686427792
707,0.446681576145785
708,0.458869657799961
709,0.478372665868015
710,0.500821688241092
711,0.516824409758666
712,0.515269731345518
713,0.490441639311647
714,0.447311258548945
715,0.398524347175104
716,0.355791309318268
717,0.324319430038082
718,0.30356857847533
719,0.290930401271999
720,0.283977587888626
721,0.280719858278106
722,0.279619966251578
723,0.279842076562394
724,0.281018183716535
725,0.282782717435596
726,0.284759559473958
727,0.286792166960254
728,0.288808187745859
729,0.290546397452067
730,0.291769165532527
731,0.292601112741487
732,0.293367763078008
733,0.294154361810627
734,0.29487982972797
735,0.29571563800542
736,0.296948532942083
737,0.298520490360553
738,0.300083184739228
739,0.301419751004505
740,0.302471095125256
741,0.303078176824639
742,0.303075554531117
743,0.302598947969502
744,0.30200749370935
745,0.30155272266884
746,0.301331246298971
747,0.301444111748358
748,0.301947352708278
749,0.30273355347082
750,0.303686698826048
751,0.304868796837754
752,0.306359789944665
753,0.308033194264282
754,0.30969636743702
755,0.311340962830373
756,0.313051941298124
757,0.314767794100076
758,0.316349870545643
759,0.317817368423595
760,0.319316381064768
761,0.320937116226997
762,0.322740058941378
763,0.32486422680645
764,0.327421653149396
765,0.330362538794566
766,0.333627332117534
767,0.337356187433933
768,0.341753486990162
769,0.346756132212847
770,0.351927718168324
771,0.35664303691831
772,0.360360257247663
773,0.362914078028568
774,0.36468624052665
775,0.366365175336692
776,0.368408039881199
777,0.370790753160019
778,0.373295182418937
779,0.375838243954419
780,0.378410009447454
781,0.380878135642539
782,0.383026524734247
783,0.384686410242873
784,0.385729086287943
785,0.386074817523842
786,0.385822652930696
787,0.385231952943344
788,0.384470885354947
789,0.383501775232067
790,0.382307108167153
791,0.381062178988639
792,0.379943844670128
793,0.378914178829149
794,0.37783007358929
795,0.376643638038279
796,0.375357711481091
797,0.373917602521685
798,0.372316358761745
799,0.370717790284311
800,0.369324238972121
801,0.368202781999352
802,0.367387708346959
803,0.367039957306664
804,0.367263936906381
805,0.367738319771621
806,0.36771957085447
807,0.366549057364295
808,0.364186236333298
809,0.361243057432202
810,0.358511395521641
811,0.356430888463001
812,0.35495271163418
813,0.353837730490054
814,0.352965523864399
815,0.352315954929848
816,0.351778378735152
817,0.351180619013058
818,0.350522854168903
819,0.350040884579017
820,0.349978062199445
821,0.350367461399302
822,0.351112408865436
823,0.352242522234347
824,0.354022883236619
825,0.356714735396093
826,0.360062635601299
827,0.362933989149516
828,0.363678210459483
829,0.36118546674247
830,0.355773123784822
831,0.349034559912654
832,0.34280899040136
833,0.338244868361487
834,0.335590750416863
835,0.334566072058733
836,0.334774386778744
837,0.335865135068447
838,0.337560226149746
839,0.339711797265317
840,0.3423827683862
841,0.345761419781545
842,0.350017758380563
843,0.355355654968015
844,0.362114607057943
845,0.370284827442777
846,0.378478596002406
847,0.383859747484761
848,0.384181803648871
849,0.380379646888012
850,0.376453823869874
851,0.376207452404677
852,0.380479104136596
853,0.38760606936697
854,0.395840890956259
855,0.404674113770492
856,0.414251792724931
857,0.424656332130884
858,0.43601821038713
859,0.448610043666915
860,0.462565270731739
861,0.477840716607886
862,0.49455198669675
863,0.512977405211607
864,0.533133697610542
865,0.554802162630852
866,0.577990352783863
867,0.602889851842437
868,0.629054665935697
869,0.654721629636557
870,0.676869705359143
871,0.691888087257227
872,0.696831212476498
873,0.690677378934271
874,0.674593800370605
875,0.650725731860982
876,0.621098648084973
877,0.587685207783494
878,0.552654016904887
879,0.518212389719479
880,0.486030551556004
881,0.456633332803639
882,0.429031499027205
883,0.401140089245787
884,0.371399578569094
885,0.340503236853025
886,0.311541202932028
887,0.28816729484216
888,0.272496043720773
889,0.264331949738554
890,0.261923330861566
891,0.263141293723818
892,0.266133650020553
893,0.269680616409426
894,0.273282133146526
895,0.276862339048112
896,0.280323603179545
897,0.283441496197102
898,0.286115259800533
899,0.288387589037587
900,0.290226042644578
901,0.291563888703727
902,0.292579285855507
903,0.293667565362068
904,0.295085083893464
905,0.2968453267698
906,0.298960037749564
907,0.301516147501499
908,0.304493174111281
909,0.307768683405537
910,0.311340258592213
911,0.315314389098372
912,0.319628013283214
913,0.324030709829883
914,0.328353776425862
915,0.33255734074089
916,0.336510302107797
917,0.339999077583318
918,0.342992640118737
919,0.345650458652949
920,0.348042886244372
921,0.350068133500953
922,0.351678216829257
923,0.352964820085754
924,0.354021278476827
925,0.354938266027329
926,0.355940925441563
927,0.357314230905299
928,0.359153591450582
929,0.361350235840478
930,0.363823114495899
931,0.366631270854804
932,0.369869369243737
933,0.373567846117758
934,0.377561283177866
935,0.381266798430925
936,0.383779172058845
937,0.384560255830471
938,0.384015058856579
939,0.383138097529651
940,0.382631990561921
941,0.382572735870755
942,0.382798218422298
943,0.383245762854094
944,0.383898692849145
945,0.384724899418339
946,0.385773751823288
947,0.387133570396625
948,0.388746964275381
949,0.390448318952263
950,0.39218051585751
951,0.393998451229033
952,0.395890403650965
953,0.39779240333747
954,0.399759305535352
955,0.401908090110484
956,0.404218479869512
957,0.406581564900946
958,0.408998693400424
959,0.411537880232803
960,0.414140292231172
961,0.416685227305828
962,0.419195945408452
963,0.421785933869334
964,0.424483727455243
965,0.427313943212244
966,0.430418821700532
967,0.433797983602671
968,0.436994901414871
969,0.439369404691192
970,0.440725730748031
971,0.441457934408274
972,0.442125982000253
973,0.44310041345782
974,0.444545580200046
975,0.446455017199315
976,0.44865217598731
977,0.450958006228703
978,0.453385456255277
979,0.456048410491487
980,0.458949126401806
981,0.462015156819695
982,0.465253077302447
983,0.468653441682116
984,0.472049157745492
985,0.475295588630702
986,0.478497340822774
987,0.481836279335606
988,0.485269506880096
989,0.488658991467452
990,0.492107635774964
991,0.495901106475097
992,0.500193015335246
993,0.504980879919777
994,0.510308898057052
995,0.516208162532947
996,0.522462769267727
997,0.528725260360845
998,0.534866972645228
999,0.541046589145518
1000,0.547521195475379
1001,0.554544134302065
1002,0.562327819025715
1003,0.570850955867717
1004,0.579790730942841
1005,0.588833478296908
1006,0.597915266015352
1007,0.607001599451145
1008,0.61588083664564
1009,0.624429218507537
1010,0.632818692058715
1011,0.641179386992332
1012,0.649294364141783
1013,0.656927757759043
1014,0.664186694629776
1015,0.671262074031899
1016,0.678133380380594
1017,0.684860636949919
1018,0.691844321127374
1019,0.699438389761246
1020,0.707619849885446
1021,0.716363338598633
1022,0.726019456915491
1023,0.737003276189892
1024,0.749482346204736
1025,0.763634756580797
1026,0.779451566613794
1027,0.795485676049802
1028,0.808266729945867
1029,0.814201996909387
1030,0.812475408439833
1031,0.805907836996743
1032,0.79918104536272
1033,0.796355907218283
1034,0.79926494356396
1035,0.807191046913752
1036,0.817798678910222
1037,0.828692381407442
1038,0.83848515589596
1039,0.846727580163865
1040,0.853522615740704
1041,0.859429160747658
1042,0.865170322231203
1043,0.870995626113354
1044,0.876639237035419
1045,0.882027061478541
1046,0.887497930164603
1047,0.893142339714835
1048,0.898548869108315
1049,0.903548585420875
1050,0.908567506237242
1051,0.913869485849968
1052,0.91912267363835
1053,0.924125929619788
1054,0.92928108681463
1055,0.934868730285268
1056,0.940487271916923
1057,0.945625120943487
1058,0.950220510108116
1059,0.954319718933295
1060,0.957798389636319
1061,0.960814258129223
1062,0.963956449797433
1063,0.967537669832275
1064,0.971238719502431
1065,0.974673851233592
1066,0.977722765081653
1067,0.9801706969484
1068,0.981790024022114
1069,0.983056794542741
1070,0.984984342363833
1071,0.98791464100005
1072,0.991170815504713
1073,0.994116833591785
1074,0.996743863920792
1075,0.99892440794857
1076,1
1077,0.999603663922092
1078,0.998056833596834
1079,0.99557214923293
1080,0.991884203137537
1081,0.987005788840904
1082,0.981582676108324
1083,0.97607610140044
1084,0.970404925101503
1085,0.964681299172451
1086,0.959475416472439
1087,0.955032689054025
1088,0.950953125846619
1089,0.946942706360403
1090,0.943170359334399
1091,0.939646434935528
1092,0.936004989610055
1093,0.932209844840627
1094,0.928723057290979
1095,0.925678612911978
1096,0.922597667857662
1097,0.919187837844377
1098,0.915669795020724
1099,0.912058407937212
1100,0.907912477245679
1101,0.903106543072958
1102,0.898062855016746
1103,0.892966558567046
1104,0.887354746896459
1105,0.880933144677122
1106,0.873964106661627
1107,0.866556183736314
1108,0.85835224356637
1109,0.849204183425387
1110,0.839516032312994
1111,0.829568971956882
1112,0.819209634384698
1113,0.808485015209644
1114,0.797897238143098
1115,0.787776574744717
1116,0.778003977706365
1117,0.768586076971285
1118,0.759892027912445
1119,0.752077245493577
1120,0.744813828146439
1121,0.737838586592114
1122,0.731204367379071
1123,0.724752017453455
1124,0.717926904829355
1125,0.710430158322238
1126,0.702555815273735
1127,0.694634113677297
1128,0.686690891078553
1129,0.67895868099319
1130,0.672113694989263
1131,0.666538885500574
1132,0.661844824438772
1133,0.657469593108319
1134,0.653295538324858
1135,0.64938185579898
1136,0.645580358527593
1137,0.641778259816673
1138,0.638159096535119
1139,0.634892117606646
1140,0.631840559133357
1141,0.628878189732309
1142,0.626195570229125
1143,0.623992138401738
1144,0.62218211990637
1145,0.620664426205344
1146,0.619575654010475
1147,0.618991118334428
1148,0.618659830114786
1149,0.618338225325005
1150,0.618081094896193
1151,0.617905346933593
1152,0.617448708535706
1153,0.616284411434722
1154,0.614306138474673
1155,0.611571904582787
1156,0.608084257046423
1157,0.60397182568104
1158,0.599623062387672
1159,0.595346953697161
1160,0.591140182907882
1161,0.586986301250266
1162,0.583103360286291
1163,0.579676617803045
1164,0.576607727548264
1165,0.573754383493085
1166,0.571158182411728
1167,0.568815881202761
1168,0.566480428085314
1169,0.563959334111503
1170,0.561390841133277
1171,0.558998044307787
1172,0.55680896878924
1173,0.554816574289506
1174,0.55317122009935
1175,0.551962729205683
1176,0.550996852310668
1177,0.550010470889894
1178,0.548909998325753
1179,0.547646140411096
1180,0.546134760200952
1181,0.544520666047175
1182,0.543248655383317
1183,0.54259652456907
1184,0.54239081781991
1185,0.542399882276129
1186,0.542707093499908
1187,0.543508078671493
1188,0.54480613280438
1189,0.546588586266253
1190,0.549094131839574
1191,0.552567196249049
1192,0.557016075595966
1193,0.562436514087729
1194,0.569040269120772
1195,0.577035063876383
1196,0.586329746608369
1197,0.596764466231587
1198,0.608323690575003
1199,0.620754490585933
1200,0.633119140513194
1201,0.644036592802385
1202,0.652194224110037
1203,0.656609307801063
1204,0.657023183625611
1205,0.654205471840325
1206,0.649498127155634
1207,0.643647302302158
1208,0.636393415212525
1209,0.627331120631265
1210,0.616472887392205
1211,0.603983410288632
1212,0.589930452203312
1213,0.574616700631866
1214,0.558758100812136
1215,0.54301010943293
1216,0.527705550941192
1217,0.513185161922547
1218,0.49998866489732
1219,0.488467761196
1220,0.478517271876045
1221,0.469848300291743
1222,0.462292405185617
1223,0.455677491489533
1224,0.449633930681619
1225,0.443859597999562
1226,0.438377742126641
1227,0.43330199159379
1228,0.428542970070253
1229,0.423944661654752
1230,0.41953895636118
1231,0.415391264555776
1232,0.411359358912196
1233,0.407290767114033
1234,0.403301075726242
1235,0.399602156661666
1236,0.396184455297929
1237,0.392942445033234
1238,0.389996934146883
1239,0.387563958028484
1240,0.385558853713864
1241,0.383605988283142
1242,0.381431913520767
1243,0.379040406567486
1244,0.376555949717515
1245,0.374129264346288
1246,0.371931171181401
1247,0.369996696864304
1248,0.368095943640924
1249,0.365945401211209
1250,0.363498607983855
1251,0.360860769867613
1252,0.358044436241149
1253,0.355018893102072
1254,0.351909105480931
1255,0.348909020225036
1256,0.346033298199469
1257,0.34314645626904
1258,0.340180976168195
1259,0.337126909190919
1260,0.333904827993991
1261,0.330525726800963
1262,0.327302571643681
1263,0.324617106168186
1264,0.322532847457337
1265,0.320874929179372
1266,0.31961887105502
1267,0.318895595182307
1268,0.31866342614769
1269,0.318666786362975
1270,0.318727636584316
1271,0.318832919071697
1272,0.318956628204624
1273,0.319071094309617
1274,0.319307638507032
1275,0.319847202389701
1276,0.320671152069694
1277,0.321631311597448
1278,0.322728025183616
1279,0.324050447385454
1280,0.325478112010892
1281,0.326745274576442
1282,0.327805699371611
1283,0.328839143952734
1284,0.329917772906355
1285,0.330965165367411
1286,0.332019089325601
1287,0.333206311914754
1288,0.334452861482681
1289,0.335569787040843
1290,0.336619397896994
1291,0.337857198553998
1292,0.339337869957946
1293,0.340903248719217
1294,0.342522853554051
1295,0.344294105857032
1296,0.346132898091037
1297,0.347825380418721
1298,0.349397847539201
1299,0.351079876759183
1300,0.352925412952253
1301,0.354807854181024
1302,0.356755991933268
1303,0.358929631324761
1304,0.361283586979414
1305,0.363633973403425
1306,0.366015397257363
1307,0.368606916908837
1308,0.371332745139937
