"Wave Length","Absorbance"
450,0.803970559322056
451,0.808983619249386
452,0.814115390564164
453,0.817424046390407
454,0.819544938445585
455,0.821329336672332
456,0.823125765717484
457,0.824441658795974
458,0.825951277372497
459,0.817836279099771
460,0.814831258693903
461,0.812290554522347
462,0.810503215012328
463,0.809921942040164
464,0.808368148689857
465,0.805948933479465
466,0.803231868997414
467,0.799583817742305
468,0.79396807553401
469,0.787481534264769
470,0.78161647111977
471,0.775087307178499
472,0.765221532268038
473,0.752558133555392
474,0.740357903382808
475,0.729274624862514
476,0.717695534793346
477,0.705310465968448
478,0.693137817266518
479,0.681277432594171
480,0.668892532850613
481,0.655956536104381
482,0.643193380069099
483,0.630512320755531
484,0.617206913717003
485,0.603559957602162
486,0.590637799678206
487,0.578673375287639
488,0.567075229596199
489,0.555681365114586
490,0.544864029137567
491,0.534624803424986
492,0.524568289125327
493,0.5149300951796
494,0.506564177951188
495,0.49958381386907
496,0.493294200162616
497,0.48735737484275
498,0.482224071860696
499,0.478280255544459
500,0.475203288654077
501,0.472471096890125
502,0.46978408321345
503,0.466870679467931
504,0.46366766398358
505,0.460608572453151
506,0.458337009305159
507,0.456945153656701
508,0.45574785390638
509,0.454196115555978
510,0.452346539864215
511,0.450312294908051
512,0.447966579547491
513,0.445229249484903
514,0.442254740796385
515,0.439023769080139
516,0.435310518605722
517,0.431231528747389
518,0.42737793522563
519,0.42408148087212
520,0.421154992086986
521,0.418672376892619
522,0.417144586840008
523,0.416798747281211
524,0.417262163130272
525,0.418022907833033
526,0.418840082356996
527,0.419639982509854
528,0.420431855384421
529,0.421425267293519
530,0.422668266444512
531,0.423730957436142
532,0.42415787697438
533,0.424170113343729
534,0.424473965305129
535,0.425296507775776
536,0.426141074027797
537,0.426496902424166
538,0.426312000970911
539,0.425612053476812
540,0.424508844983813
541,0.423577706566495
542,0.423550296651444
543,0.424483119582299
544,0.425841606460515
545,0.427356007275999
546,0.429105914731093
547,0.430806857751055
548,0.43189491216206
549,0.43246100203644
550,0.4332136431009
551,0.434499014887807
552,0.43609151098617
553,0.437945671775278
554,0.440310216703019
555,0.443039209871625
556,0.445587809738573
557,0.447901985313306
558,0.45043487480293
559,0.453103226827399
560,0.455092554258702
561,0.455914188644641
562,0.455918455335794
563,0.45562873465709
564,0.455440072603867
565,0.45592815463603
566,0.457558298907149
567,0.459940109182533
568,0.46214616673161
569,0.463802921701736
570,0.465144218956616
571,0.466075694733458
572,0.466270069504665
573,0.466092920732741
574,0.466276300425298
575,0.466843680087749
576,0.467214735752764
577,0.467433989248462
578,0.468135244700972
579,0.469294335003435
580,0.470170076155275
581,0.470534879257108
582,0.470935302210675
583,0.471618481529597
584,0.472315541031233
585,0.473094824756726
586,0.474464612836689
587,0.476394582837174
588,0.47821161349858
589,0.479600365293376
590,0.480885274017247
591,0.482161862971632
592,0.483101575280344
593,0.483811650882156
594,0.484875308770039
595,0.486360460159052
596,0.487698316490409
597,0.488612783149899
598,0.489255417836067
599,0.489436354880022
600,0.488617731124019
601,0.486878959505177
602,0.484893408657234
603,0.482752298556429
604,0.479864318433782
605,0.476060697799674
606,0.471905085137476
607,0.467692491300932
608,0.463084193403824
609,0.458033209239623
610,0.453131050605665
611,0.448693333303492
612,0.444553403521873
613,0.440775890210327
614,0.437806390020585
615,0.435930466177184
616,0.435410535364786
617,0.43706173517924
618,0.441389866252888
619,0.44684644927614
620,0.450311879946144
621,0.450070758055759
622,0.447339427341356
623,0.444165529227992
624,0.440587989844439
625,0.434643888139917
626,0.424685407333556
627,0.411166648508632
628,0.396361700495987
629,0.382807050713989
630,0.372058027589845
631,0.364323342910586
632,0.359056475178872
633,0.355712530055057
634,0.353861406277866
635,0.352936259058674
636,0.352471271940393
637,0.352601791884738
638,0.353741898276175
639,0.355744718479546
640,0.358165370002282
641,0.361375019277354
642,0.366174134591015
643,0.37179279466025
644,0.375244330824974
645,0.373535466370653
646,0.366301745996382
647,0.356073093495906
648,0.34627300799534
649,0.339132902034607
650,0.334843559192771
651,0.332090757249212
652,0.329658713103002
653,0.327463694968653
654,0.32591090014153
655,0.324862140764718
656,0.323772805880732
657,0.322625262911179
658,0.321823516149897
659,0.321433582325756
660,0.321260896892147
661,0.32134872685516
662,0.321657363020674
663,0.321718868703612
664,0.320696056527792
665,0.317954817001043
666,0.313489336060032
667,0.308190382762183
668,0.305538459175239
669,0.310115181412039
670,0.317904965682384
671,0.324412209214572
672,0.32901170301327
673,0.332322871750348
674,0.335010079578732
675,0.337483164045831
676,0.339882385207034
677,0.341947349742752
678,0.343198871075514
679,0.343355313779555
680,0.342477626816922
681,0.340832180918999
682,0.33884085012391
683,0.337300509372471
684,0.336897575852578
685,0.337650473509378
686,0.339293595117876
687,0.341820327891394
688,0.34529936052581
689,0.349482208480315
690,0.354150586343864
691,0.359523535958968
692,0.365865898983712
693,0.373206491350719
694,0.381615129774306
695,0.391421273168407
696,0.402935788831334
697,0.415980918623045
698,0.430000765353965
699,0.444258555500301
700,0.45753949279954
701,0.468137340573022
702,0.47447284266738
703,0.475909556988559
704,0.473240458340247
705,0.46869062377444
706,0.465602975618082
707,0.467488514443476
708,0.476701347461102
709,0.493067349788554
710,0.51233326279563
711,0.52567669888153
712,0.522826046818239
713,0.49864508689522
714,0.457877795227304
715,0.412200447832206
716,0.372291797881071
717,0.342842295531063
718,0.323327628037076
719,0.311345255726363
720,0.30462241006732
721,0.301278501867669
722,0.299896183201226
723,0.299749960355866
724,0.300555113686167
725,0.302015009786617
726,0.303794320142338
727,0.305726996774614
728,0.307726403110987
729,0.309567883283178
730,0.311039663473263
731,0.312183575002276
732,0.313179944806341
733,0.314061079364535
734,0.314816552020608
735,0.315686826508589
736,0.316968510488005
737,0.318624885677259
738,0.32035742917056
739,0.3219278165581
740,0.323145227847519
741,0.323717185627084
742,0.323443781168109
743,0.322497797692442
744,0.321293115476468
745,0.32017312775449
746,0.319382832411496
747,0.319167021507746
748,0.319638737551022
749,0.320637119581779
750,0.321908606960991
751,0.323359114346017
752,0.32499869425212
753,0.326773131194686
754,0.328613499732057
755,0.330537461979096
756,0.33254489741464
757,0.334508811171493
758,0.336323557300256
759,0.338076880830289
760,0.339938341906835
761,0.341978553127797
762,0.344220924172251
763,0.346751546232562
764,0.349651063871051
765,0.352931894572414
766,0.356689377548136
767,0.361207431573193
768,0.366719668294954
769,0.37303036513335
770,0.379391282277208
771,0.384749116789508
772,0.388250055755292
773,0.389791870687955
774,0.390162002536606
775,0.390466809579388
776,0.391343311462799
777,0.392767034402394
778,0.394497731669145
779,0.39641452051203
780,0.398396201950885
781,0.400192806865622
782,0.401594279220525
783,0.402557928344436
784,0.403065320662598
785,0.403029728937876
786,0.402439964000281
787,0.401424392581088
788,0.40009902855226
789,0.398507108653491
790,0.396771538072604
791,0.395115564989688
792,0.393627339631494
793,0.392174620368604
794,0.390635646247112
795,0.389045551467805
796,0.387435161491797
797,0.385724991085485
798,0.383902195478199
799,0.382136168443228
800,0.380601377960656
801,0.37936221732239
802,0.378580797244925
803,0.378614861668653
804,0.37959821917552
805,0.380912954841644
806,0.381315742123201
807,0.379775748600916
808,0.376290548746697
809,0.371921558912516
810,0.368020656407487
811,0.365330462162308
812,0.36372454669514
813,0.362702008202551
814,0.361964725554323
815,0.36147872615413
816,0.361182652600703
817,0.36092566209623
818,0.360692503682028
819,0.360684614624219
820,0.361117351475206
821,0.362057532417375
822,0.363539125840344
823,0.365742024105902
824,0.36896275912996
825,0.373311602371492
826,0.378237752461188
827,0.382220340642803
828,0.38321369618507
829,0.379907524225021
830,0.372810190870148
831,0.364046490354915
832,0.356013400462877
833,0.350157232119017
834,0.346728758955515
835,0.345310511960298
836,0.345375790013512
837,0.346483119301221
838,0.348286277387114
839,0.350588880711973
840,0.353425133733331
841,0.356956192234241
842,0.361311903559746
843,0.366641195179504
844,0.373221342859193
845,0.38100427288409
846,0.388656332338511
847,0.393522969782953
848,0.393557449119618
849,0.389697675081951
850,0.385684410778822
851,0.385040414755923
852,0.388595211342203
853,0.394926829510401
854,0.402455919873329
855,0.410556888475366
856,0.419147867022764
857,0.428262162648086
858,0.438193697857574
859,0.449392331200671
860,0.462039912844427
861,0.476037305504932
862,0.491409862113243
863,0.508370019051079
864,0.526962489068115
865,0.547096743886393
866,0.568882112431189
867,0.592479872766695
868,0.617405233368006
869,0.642069803151152
870,0.663817158117415
871,0.679273101670921
872,0.685359662926378
873,0.68069111610386
874,0.666154880396758
875,0.643818489626268
876,0.615718598511492
877,0.583820197972594
878,0.550254695769836
879,0.517166446518307
880,0.486148079634949
881,0.457691953361147
882,0.43087483482076
883,0.403740544399827
884,0.374830082376161
885,0.344848199599941
886,0.316796063610096
887,0.294168121849348
888,0.278921653857793
889,0.270796149849732
890,0.268089276559731
891,0.26878325639156
892,0.271160319582697
893,0.274152182528202
894,0.277382131409492
895,0.28078193380322
896,0.284131524794055
897,0.287069496681277
898,0.289466454085671
899,0.291438140410493
900,0.293030985533038
901,0.294200207205288
902,0.295095212304065
903,0.296072180800485
904,0.297374634294099
905,0.299041145070687
906,0.301114862862245
907,0.303674889134252
908,0.306660161958169
909,0.309921714546817
910,0.313457799609456
911,0.317376004387309
912,0.321617563255332
913,0.325971540663759
914,0.330319240613409
915,0.334606554393847
916,0.338615629524775
917,0.342063008622871
918,0.344916854639008
919,0.34735278120648
920,0.34943046023921
921,0.351056324930283
922,0.352253711367367
923,0.353200507057865
924,0.354027929712023
925,0.354827619105028
926,0.355823958315936
927,0.357280451936222
928,0.359231954045678
929,0.361526181275024
930,0.364117684300428
931,0.367147291100769
932,0.37074493647526
933,0.374888903079235
934,0.379292287528041
935,0.383213558463282
936,0.385606120208746
937,0.38590034737282
938,0.384625235725421
939,0.382983073427616
940,0.381854331613479
941,0.38140933502505
942,0.381493936699453
943,0.381965476984678
944,0.382667203151057
945,0.383458188070502
946,0.38438811917856
947,0.385626035685225
948,0.387187800766544
949,0.388936419821133
950,0.390814184942684
951,0.392850951345309
952,0.394983542256363
953,0.397104600743072
954,0.399273536813857
955,0.401637728046819
956,0.404186152527494
957,0.406802951445568
958,0.409497192222336
959,0.412339827826909
960,0.415228939862542
961,0.417981864239791
962,0.420614068181858
963,0.423300605848595
964,0.426149821869767
965,0.429250365938954
966,0.432788555950478
967,0.436745319519768
968,0.440519905855689
969,0.443244422743337
970,0.444588626162135
971,0.445041723935562
972,0.445423692089026
973,0.446313784228334
974,0.447885926022241
975,0.450004695730175
976,0.452394055511087
977,0.454886094787188
978,0.457545442918132
979,0.46049049665339
980,0.463700299721801
981,0.467118861577096
982,0.470798795683607
983,0.474724027610882
984,0.478636877695084
985,0.482274520291264
986,0.485662272758056
987,0.488975068314104
988,0.492255304254341
989,0.49551926330802
990,0.498996754726568
991,0.502999726067621
992,0.507654322524109
993,0.51293221279968
994,0.518770384412596
995,0.524946603946531
996,0.53105078518075
997,0.536923085806764
998,0.542940815928725
999,0.549597814419578
1000,0.556997666893054
1001,0.564998479057794
1002,0.573617334917474
1003,0.582898724383948
1004,0.592595454657098
1005,0.60237305984056
1006,0.612165410343459
1007,0.621996378463477
1008,0.631662170829139
1009,0.640960677589738
1010,0.649998795210837
1011,0.658909864207827
1012,0.667493123943478
1013,0.675510418901285
1014,0.683067414374554
1015,0.690327211530065
1016,0.697188783441707
1017,0.703656277945807
1018,0.71020218148894
1019,0.71735513781044
1020,0.725269425057928
1021,0.734060246663608
1022,0.74417463658196
1023,0.756025603758378
1024,0.769668167581377
1025,0.785146845535336
1026,0.802291709274481
1027,0.819228365647773
1028,0.83168561304783
1029,0.835367526186803
1030,0.829534670987625
1031,0.817947560844783
1032,0.80646678784823
1033,0.79995302382972
1034,0.800514100655975
1035,0.807307147626471
1036,0.817563030040176
1037,0.828281275204388
1038,0.837625783499281
1039,0.845103930873974
1040,0.851081521726251
1041,0.856357638172843
1042,0.86169913987127
1043,0.867284535943925
1044,0.872788562345314
1045,0.87812915781634
1046,0.883668579441101
1047,0.889508474969254
1048,0.895183771567444
1049,0.90040564984613
1050,0.905499163817279
1051,0.91071780172508
1052,0.915788285645412
1053,0.920593247593218
1054,0.925645602830808
1055,0.931349339044413
1056,0.937344595936618
1057,0.943005045529692
1058,0.948061079219922
1059,0.952410014239043
1060,0.955921751997327
1061,0.958850469966822
1062,0.961884067233356
1063,0.965366683497709
1064,0.968955210523632
1065,0.972252441443678
1066,0.975177381792096
1067,0.977565856666714
1068,0.979198580818641
1069,0.980531815555368
1070,0.982576883859032
1071,0.985682570086098
1072,0.989148311318364
1073,0.992315772164521
1074,0.995226284208142
1075,0.997857343534684
1076,0.99959808028882
1077,1
1078,0.999213536484078
1079,0.99727084401511
1080,0.993788300138403
1081,0.988793082688482
1082,0.983086224138606
1083,0.977299102105499
1084,0.97139347188691
1085,0.965408520627708
1086,0.959849080269311
1087,0.954969529039862
1088,0.950405263011199
1089,0.945881917309457
1090,0.941600314971846
1091,0.937639110681439
1092,0.933698490598097
1093,0.929757164685725
1094,0.926234025570847
1095,0.923178974036335
1096,0.920026055933418
1097,0.916464962301679
1098,0.912812641720942
1099,0.909214403496127
1100,0.905246991675468
1101,0.900666349286892
1102,0.895769559492894
1103,0.890722215521399
1104,0.885106586719425
1105,0.878669333145878
1106,0.871716329870311
1107,0.864416189413898
1108,0.856437464889495
1109,0.847578100156194
1110,0.838159042577055
1111,0.828435850081076
1112,0.818291457900226
1113,0.807816560748872
1114,0.797534297050743
1115,0.78777363104014
1116,0.778392560168881
1117,0.769362588335901
1118,0.761045967362841
1119,0.753641358647629
1120,0.746865964722872
1121,0.740428543851639
1122,0.734263336443942
1123,0.728053271679579
1124,0.721116425980389
1125,0.713132568599529
1126,0.704529538925513
1127,0.695891511051384
1128,0.687479264596316
1129,0.679576662511313
1130,0.672707909902456
1131,0.667080112774516
1132,0.662283370864427
1133,0.657869845926249
1134,0.653832068068407
1135,0.650250189278469
1136,0.646922874137358
1137,0.643653513051314
1138,0.640535157837942
1139,0.637672561612184
1140,0.634932309923224
1141,0.632254632166671
1142,0.629889660470666
1143,0.62803705986046
1144,0.626588397413637
1145,0.625458653797325
1146,0.624830721012638
1147,0.624801756887204
1148,0.62510639225128
1149,0.625484473928675
1150,0.625974652378335
1151,0.626540772158551
1152,0.62671870932041
1153,0.62597241025828
1154,0.624110553313136
1155,0.621145812336128
1156,0.617110896108514
1157,0.61225548040217
1158,0.60712239147977
1159,0.602119769434692
1160,0.597276877871291
1161,0.592592308448463
1162,0.588294513578986
1163,0.584549477298362
1164,0.581224361906751
1165,0.578177128712196
1166,0.57548636081915
1167,0.573179607679487
1168,0.571011048551129
1169,0.568775346883233
1170,0.566584391174525
1171,0.564612219852594
1172,0.562859345175913
1173,0.561357105157055
1174,0.560302261864814
1175,0.559728235778075
1176,0.559296209477267
1177,0.558661651831952
1178,0.557789767503812
1179,0.556725320168967
1180,0.55538181744143
1181,0.553815293878665
1182,0.552388510575141
1183,0.551363330661697
1184,0.550635190173429
1185,0.55012385212123
1186,0.550078633365854
1187,0.550764757060156
1188,0.552132941502964
1189,0.554095215376264
1190,0.556880776216677
1191,0.560756050106354
1192,0.565730120927152
1193,0.571794164803585
1194,0.579165851787487
1195,0.588031593601307
1196,0.598246645891583
1197,0.609650947382656
1198,0.622302817275109
1199,0.635944816716781
1200,0.649400669251888
1201,0.660906942772525
1202,0.668878232827008
1203,0.672331531355583
1204,0.671274032528183
1205,0.666882053818632
1206,0.660865960661637
1207,0.654143983071149
1208,0.646413226409057
1209,0.637137328195514
1210,0.626238492990913
1211,0.61383508163317
1212,0.599943215507966
1213,0.584822226314495
1214,0.569181922812366
1215,0.553683513078246
1216,0.538643393313383
1217,0.524399700987506
1218,0.511540605581199
1219,0.50046532033344
1220,0.491043222877648
1221,0.482898161173758
1222,0.475765411501901
1223,0.469369383717975
1224,0.463233417496873
1225,0.45702522391914
1226,0.450897422102865
1227,0.445204013878283
1228,0.440054361170449
1229,0.435343384059254
1230,0.431015443491262
1231,0.426996453921708
1232,0.423054240695297
1233,0.419056786530088
1234,0.415209799766387
1235,0.411778816676946
1236,0.408722964591429
1237,0.405883237833178
1238,0.403376503903399
1239,0.401441632186849
1240,0.399986392161199
1241,0.398595809630622
1242,0.396952116963428
1243,0.395004907863474
1244,0.392821584280827
1245,0.390552555413034
1246,0.388453286288243
1247,0.386653537491354
1248,0.384932800238352
1249,0.382933270652711
1250,0.38052514695593
1251,0.377776838611411
1252,0.374729127680243
1253,0.371429370106009
1254,0.368072641245338
1255,0.3648546627876
1256,0.361741440258335
1257,0.358577124195919
1258,0.355326140490961
1259,0.352002939031288
1260,0.348507425042972
1261,0.344830292845926
1262,0.341309380854436
1263,0.338367607657604
1264,0.336088512364893
1265,0.334300277563302
1266,0.332968194704145
1267,0.332191063628463
1268,0.331901582506645
1269,0.331871992034628
1270,0.331975207298927
1271,0.33217462231762
1272,0.332332954158055
1273,0.33233985631036
1274,0.332358727597698
1275,0.332665775401904
1276,0.33331506102695
1277,0.334191400951581
1278,0.335298533276438
1279,0.336686633077009
1280,0.338164267246468
1281,0.339411332327887
1282,0.340363555272533
1283,0.341181289165615
1284,0.341912313460638
1285,0.342514181391417
1286,0.343137821664727
1287,0.344024176172684
1288,0.345130958826378
1289,0.346231142833824
1290,0.347338991580455
1291,0.348671667944835
1292,0.350256451561356
1293,0.351943302861578
1294,0.353742093214068
1295,0.355756142748309
1296,0.357831123084867
1297,0.35966647996782
1298,0.361272893401158
1299,0.362931751871609
1300,0.364756086707268
1301,0.366654257080107
1302,0.368661427144282
1303,0.370906841727025
1304,0.373283216067851
1305,0.3755620687086
1306,0.377783522290346
1307,0.380168562482176
1308,0.382689463066261
1309,0.385172112312722
