"Wave Length","Absorbance"
450,0.779016652451861
451,0.784868191668738
452,0.790337521732169
453,0.794157049788338
454,0.797042279781226
455,0.79993749651509
456,0.801711929706065
457,0.803256518904384
458,0.795766063391073
459,0.794054584514848
460,0.792712316584877
461,0.79122805107113
462,0.791543709295274
463,0.79191633593819
464,0.790484893547975
465,0.787498642262901
466,0.784393519344768
467,0.780737929433959
468,0.77528190034306
469,0.768771451797399
470,0.762562395506719
471,0.755431044320465
472,0.74485638662776
473,0.731442338914018
474,0.718387310796091
475,0.706402623419676
476,0.694096437981336
477,0.681356867291519
478,0.669219166160431
479,0.657631944855191
480,0.645617629801317
481,0.633119205501052
482,0.62088235061501
483,0.608817336836845
484,0.596106746192903
485,0.582723240789574
486,0.569417498751106
487,0.55649215259051
488,0.543839637044063
489,0.531773451657495
490,0.520780208368331
491,0.510678161000673
492,0.500882557072211
493,0.491495426974751
494,0.483122939308153
495,0.475619262406084
496,0.468311930820186
497,0.461178367416405
498,0.454951231462064
499,0.450037913491719
500,0.446034154072002
501,0.442507453496544
502,0.439391443304601
503,0.436504580437061
504,0.433637132834016
505,0.431037529321076
506,0.429187496577461
507,0.428016074599077
508,0.426851518203644
509,0.425442086955816
510,0.424150389353273
511,0.423066392393076
512,0.421748446668295
513,0.419883642880065
514,0.417686088172714
515,0.415287990042665
516,0.412429903588773
517,0.409032776065353
518,0.40559541314797
519,0.402627989305645
520,0.400229352860699
521,0.398543742860457
522,0.397848605062026
523,0.398035402269503
524,0.398557208058109
525,0.399006332164767
526,0.39937683404406
527,0.399680970658378
528,0.399823498142902
529,0.399985029694445
530,0.400459823060686
531,0.401207304042186
532,0.401912121877312
533,0.402445878119745
534,0.402916718425355
535,0.403178076158606
536,0.402875324875755
537,0.402079949019935
538,0.401344236007285
539,0.400908030509469
540,0.400563900347848
541,0.400276325297467
542,0.400339574454197
543,0.400789528004678
544,0.401278722035587
545,0.40164393187925
546,0.402053856326694
547,0.402529298385321
548,0.402905439373554
549,0.403325649742822
550,0.404133652375952
551,0.405279612005349
552,0.406423366256504
553,0.407638830291275
554,0.409343024755643
555,0.411535396379271
556,0.413720108377029
557,0.415667085056521
558,0.417541574634047
559,0.419222649639431
560,0.420254043973165
561,0.420587697814496
562,0.420699296054917
563,0.420870065994286
564,0.42107756457702
565,0.421529013952254
566,0.42257110405762
567,0.424046207397582
568,0.425453256861144
569,0.426677964738345
570,0.4278985420141
571,0.42887713845369
572,0.429249116893985
573,0.429363834414718
574,0.429874088975902
575,0.430712591163356
576,0.431229369503979
577,0.431392126511393
578,0.431808372721754
579,0.43256085777566
580,0.433067440061353
581,0.433114534131568
582,0.433092365182853
583,0.433149058567797
584,0.433104825787211
585,0.433190655772931
586,0.434015892559534
587,0.435602527947219
588,0.437287090996641
589,0.438667151534125
590,0.43994877898094
591,0.441244797039655
592,0.442348613494905
593,0.443342125963086
594,0.444599052717971
595,0.446072065735074
596,0.447326794172551
597,0.448292005945171
598,0.449194820997842
599,0.449821827645225
600,0.449610792447573
601,0.448590962949841
602,0.447350205603076
603,0.445971853660185
604,0.443956507175911
605,0.441191731167298
606,0.438179729845535
607,0.435165536490587
608,0.431896976610386
609,0.428426261631745
610,0.425233905456944
611,0.42231784714551
612,0.419240080011577
613,0.416046322639368
614,0.413341266365808
615,0.411481586184279
616,0.410592569172648
617,0.411332355047939
618,0.414370782171389
619,0.418740095949044
620,0.421923730635748
621,0.422297774236378
622,0.420603652940763
623,0.41840068012947
624,0.415775973032138
625,0.411249694963116
626,0.403488030930783
627,0.392702293115574
628,0.380608570941509
629,0.369359085937979
630,0.360424648868443
631,0.354035887108318
632,0.349674617615669
633,0.346890156209141
634,0.345420304803783
635,0.344830683331424
636,0.34465952760668
637,0.344945864671823
638,0.346022566771022
639,0.347749239072133
640,0.349724881517836
641,0.352291950105591
642,0.356158435532509
643,0.360648234325617
644,0.363272082859578
645,0.361670678938828
646,0.355657557845655
647,0.347234540258369
648,0.339012215831243
649,0.33279729795147
650,0.328951743637886
651,0.326562787171078
652,0.324624743639006
653,0.322980617317301
654,0.321852042878263
655,0.321006140712146
656,0.319972485171827
657,0.318894011704712
658,0.318251138335451
659,0.318050679737844
660,0.317999726470918
661,0.318096135687792
662,0.318250829606789
663,0.317970845351632
664,0.316535636559531
665,0.313494937164467
666,0.308856930404263
667,0.303242898765823
668,0.299884965579919
669,0.303886596366045
670,0.311689899239395
671,0.318541939558523
672,0.323432389710823
673,0.326771114186021
674,0.329202703378337
675,0.331249683923144
676,0.333179023684377
677,0.334825450152194
678,0.335834726266297
679,0.33612224397021
680,0.335899335526799
681,0.335350427664499
682,0.334501388441219
683,0.333686081372185
684,0.33340374921501
685,0.333826217275885
686,0.334949139103512
687,0.336900918935999
688,0.339756136017432
689,0.343264774148318
690,0.347235601593622
691,0.35188054404378
692,0.35740426712993
693,0.363772411509737
694,0.371000239594275
695,0.379355086595303
696,0.389132967164701
697,0.40026320518652
698,0.412416441208288
699,0.425130104688239
700,0.437462877673108
701,0.447966667728271
702,0.455211440788996
703,0.458476269973147
704,0.458224186042481
705,0.456205327123223
706,0.455285137328037
707,0.458629133314965
708,0.468472795990166
709,0.484777410790693
710,0.503591930007696
711,0.516403498965638
712,0.513151617275871
713,0.488810678345326
714,0.448153490850183
715,0.402781481983653
716,0.363239325742229
717,0.334139549313709
718,0.314972896324474
719,0.303375331253355
720,0.297074494345759
721,0.294158484333373
722,0.293179940563737
723,0.293391996713432
724,0.294483757706949
725,0.29613139754513
726,0.297986280966681
727,0.299886301723367
728,0.301759482698283
729,0.303410287315529
730,0.30468338132167
731,0.305695742980745
732,0.306685073407767
733,0.307685608540538
734,0.308634703335019
735,0.309700974149145
736,0.311106617542958
737,0.312740564267777
738,0.314266409969477
739,0.315504413692596
740,0.316422839795614
741,0.316902578349536
742,0.316826506824077
743,0.316330966294393
744,0.315717148080287
745,0.315183997137771
746,0.31482660815157
747,0.314777104760703
748,0.315129273200423
749,0.315804749602914
750,0.316672508423933
751,0.317726630185403
752,0.319013090613044
753,0.320493557298321
754,0.322109681441053
755,0.323858651687331
756,0.32567535983132
757,0.327370873428234
758,0.328844059331037
759,0.330247106216222
760,0.33179964709486
761,0.333555575853065
762,0.335479205715245
763,0.337603595950715
764,0.339962295612442
765,0.342502808334838
766,0.345249184195786
767,0.348446085842325
768,0.35235143173501
769,0.35690869582579
770,0.361693046897433
771,0.366114130450702
772,0.369653480479443
773,0.372115432860405
774,0.373798812800626
775,0.375317459960432
776,0.377135194638646
777,0.379310598724716
778,0.381678646079014
779,0.384094736929992
780,0.38643501280302
781,0.388542183726168
782,0.390300765534205
783,0.391659891680765
784,0.392521934694149
785,0.392757343760824
786,0.39239992331184
787,0.391678614416377
788,0.390789638514648
789,0.38976563620222
790,0.388620091862882
791,0.387441677654692
792,0.386251928287932
793,0.384943836571001
794,0.383463412521154
795,0.381909364467323
796,0.380357312101058
797,0.378739832378927
798,0.377017559610843
799,0.375325274855049
800,0.373823351536255
801,0.372544449835653
802,0.371541536387562
803,0.371040263752749
804,0.37119590907319
805,0.371684505025361
806,0.371720441105413
807,0.370605116504348
808,0.36829370896698
809,0.36543449075596
810,0.362858903755846
811,0.36098818059698
812,0.359676992012395
813,0.358575627264009
814,0.35753563208535
815,0.356628195669022
816,0.355893018684127
817,0.355252946882062
818,0.354670352433506
819,0.354244017774823
820,0.354114805950308
821,0.354363781266541
822,0.355058098094945
823,0.356337373346269
824,0.35840548554146
825,0.36136360336218
826,0.364871546725308
827,0.36785180725072
828,0.368747117043733
829,0.366466563159052
830,0.361276450557903
831,0.354725583137371
832,0.348641660412292
833,0.344154348733253
834,0.341465094082845
835,0.340264317912105
836,0.340204018882648
837,0.341039086535442
838,0.342556685411992
839,0.344565632716227
840,0.347017872029042
841,0.350037913916049
842,0.35384024431495
843,0.358718231037783
844,0.365028005726977
845,0.372679858426412
846,0.380241375323531
847,0.385004930735726
848,0.384964689641913
849,0.381159631108558
850,0.377409764711655
851,0.377219724322648
852,0.381291256405952
853,0.388039206477226
854,0.395815410528993
855,0.40408136996913
856,0.412892927890558
857,0.422305423102066
858,0.432482842005594
859,0.443724630101454
860,0.45616854312137
861,0.469763407510948
862,0.484577895425421
863,0.500820208078588
864,0.518537700562264
865,0.537710083109783
866,0.558562546687664
867,0.581312883684366
868,0.605375518606181
869,0.628956493409314
870,0.649311370152641
871,0.663265930616675
872,0.668108143194513
873,0.662657753295226
874,0.647699999798568
875,0.625096758263779
876,0.596822652848958
877,0.564921463664402
878,0.531603298914245
879,0.499037663178412
880,0.468837090451223
881,0.441515660156493
882,0.416126990428465
883,0.390643347767564
884,0.363524371466415
885,0.335408437345605
886,0.309230465878001
887,0.288393042958082
888,0.274737346471056
889,0.267904558139376
890,0.266168038907511
891,0.267568183877006
892,0.270468697278211
893,0.273841954690858
894,0.277333358051869
895,0.280943575919386
896,0.284553068782924
897,0.287833836670235
898,0.290580798019623
899,0.292814331900107
900,0.29456093821089
901,0.295813936871267
902,0.29674956198593
903,0.297727292634861
904,0.299011161037843
905,0.30068530290036
906,0.302834263159558
907,0.305555714233273
908,0.30877511153834
909,0.312289000907968
910,0.316026297505035
911,0.320068906648681
912,0.324381768132134
913,0.328759490598388
914,0.333049086538604
915,0.337207359630094
916,0.341132851512242
917,0.344665217732811
918,0.347762458404302
919,0.350479393443418
920,0.352796387144253
921,0.354653663181984
922,0.356134800833963
923,0.357407951765645
924,0.358526923885155
925,0.359489681095861
926,0.360447145379992
927,0.361651650699314
928,0.363231302682768
929,0.365194537629857
930,0.367590683817359
931,0.370486065904389
932,0.373831693908062
933,0.377506057889137
934,0.381336023242502
935,0.384862962169969
936,0.387296440798762
937,0.388104228994772
938,0.387607363799058
939,0.386704817455769
940,0.386061623881467
941,0.385798990531584
942,0.38584047733718
943,0.386163085018084
944,0.386699752212585
945,0.387341683266053
946,0.388140601039275
947,0.389282146472402
948,0.390807053255575
949,0.39255760828975
950,0.394408248996324
951,0.396356908085482
952,0.398392532279688
953,0.400468266996393
954,0.402608565074036
955,0.404854037743366
956,0.407137659192555
957,0.409399020706555
958,0.411756426165442
959,0.414358429974403
960,0.417118517840879
961,0.419823303747144
962,0.422448514661023
963,0.425154523938987
964,0.428044740915048
965,0.431154643078981
966,0.434571549394424
967,0.438247081045569
968,0.441721779131407
969,0.444363541559894
970,0.445969190192478
971,0.446942954943585
972,0.447896626126464
973,0.449239019691395
974,0.451095595546793
975,0.453384196902099
976,0.455913303024216
977,0.458555717286961
978,0.461341576143352
979,0.464321948154472
980,0.467449980932055
981,0.47071183727937
982,0.474231723418682
983,0.478047990892636
984,0.481929187106233
985,0.485621494660518
986,0.489155149565568
987,0.492716004807952
988,0.496349766221102
989,0.500029103073615
990,0.503872009439193
991,0.508046927334391
992,0.512577762131769
993,0.517445300802062
994,0.522733263310517
995,0.528440838445911
996,0.534296424306507
997,0.540048391881959
998,0.545812521051307
999,0.551902391686481
1000,0.558483095386085
1001,0.565599217744056
1002,0.57335725133655
1003,0.581765626245188
1004,0.590559443894693
1005,0.59946637581237
1006,0.60847375362535
1007,0.617590533028241
1008,0.626591211857219
1009,0.635298484228636
1010,0.643844268223805
1011,0.652321858981815
1012,0.660445880279598
1013,0.667933597049548
1014,0.674952476912581
1015,0.681819125718491
1016,0.688553857960138
1017,0.695109911049854
1018,0.701745710957832
1019,0.708784603865156
1020,0.716308664413107
1021,0.724438820528598
1022,0.733604722919682
1023,0.744195211587436
1024,0.756292986980803
1025,0.770011331379583
1026,0.7853259753356
1027,0.800765948844301
1028,0.812770484000175
1029,0.817651315955146
1030,0.81462892365869
1031,0.806718743142524
1032,0.798809304144263
1033,0.795030126097646
1034,0.797144456868668
1035,0.804347485084829
1036,0.81428903414064
1037,0.824620000966361
1038,0.83399409869877
1039,0.8419457947925
1040,0.848506483220702
1041,0.854150377096226
1042,0.859562427289664
1043,0.865030374441029
1044,0.870359597012073
1045,0.875505426899831
1046,0.880777811946301
1047,0.886236343801209
1048,0.891468556468917
1049,0.896283681204738
1050,0.901033220272447
1051,0.905946169870252
1052,0.910802758645004
1053,0.915589545349891
1054,0.920763303234235
1055,0.92646573748604
1056,0.932141927345645
1057,0.937285469331982
1058,0.941948049480866
1059,0.946228868374333
1060,0.949964534215562
1061,0.95327889138963
1062,0.956752244798318
1063,0.960633410252329
1064,0.964495926860549
1065,0.967960337485204
1066,0.971105379954696
1067,0.973955543957669
1068,0.976345937005921
1069,0.978594066853467
1070,0.981473426902642
1071,0.985169574241811
1072,0.98901298653455
1073,0.992500486449164
1074,0.995725549562303
1075,0.998498674951781
1076,1
1077,0.999806299589057
1078,0.998318532897416
1079,0.995762203812092
1080,0.991717753068706
1081,0.986082571588312
1082,0.979665062144375
1083,0.973270732593405
1084,0.967039327241747
1085,0.961045825418902
1086,0.95569468117598
1087,0.951114841116127
1088,0.946884911108192
1089,0.942742296048259
1090,0.938901435713761
1091,0.935407409284819
1092,0.931890255714362
1093,0.928272081053012
1094,0.924965932154257
1095,0.922067229635122
1096,0.919075294723164
1097,0.915718930415172
1098,0.912304052313287
1099,0.908935254519909
1100,0.905154402543622
1101,0.900686182297341
1102,0.895798267187612
1103,0.890660499059171
1104,0.884943093881052
1105,0.878492523680947
1106,0.871590399303226
1107,0.864263669574571
1108,0.856089110417307
1109,0.8469313051901
1110,0.837232968082402
1111,0.827259116458009
1112,0.816790756094063
1113,0.805836499169322
1114,0.794935119715523
1115,0.784501838047243
1116,0.774486930556161
1117,0.7649093297452
1118,0.756102323301448
1119,0.748187323532545
1120,0.740846966166965
1121,0.733860704112249
1122,0.727299190868089
1123,0.720964705367404
1124,0.714243651172616
1125,0.706814388505034
1126,0.698992752150149
1127,0.691133846120831
1128,0.683261251924446
1129,0.675595517017704
1130,0.668824799927525
1131,0.663370244868856
1132,0.658870439466745
1133,0.654744100458829
1134,0.650811879297991
1135,0.647079966271304
1136,0.643408159846007
1137,0.639748047259636
1138,0.636341181365588
1139,0.633361682744102
1140,0.630642262454631
1141,0.628032693885117
1142,0.625709384568581
1143,0.623841561693124
1144,0.622298507632105
1145,0.620958195071645
1146,0.619986309140217
1147,0.61951905955715
1148,0.619358874067568
1149,0.619274661521591
1150,0.619282554898501
1151,0.619335132663279
1152,0.61902555956736
1153,0.617921342739281
1154,0.61591743172293
1155,0.613057429394981
1156,0.609349374107742
1157,0.604979612884924
1158,0.600402726876376
1159,0.595929625081906
1160,0.59150725811268
1161,0.587103012045493
1162,0.582983038311471
1163,0.579378340594068
1164,0.576169736702159
1165,0.57315310187044
1166,0.570341289092579
1167,0.567769298777935
1168,0.565264642367127
1169,0.562687513093057
1170,0.560162362701976
1171,0.55783623583793
1172,0.555659882105748
1173,0.553610286097071
1174,0.551876965881608
1175,0.550583029860599
1176,0.549534762326209
1177,0.548479250690815
1178,0.547376774408014
1179,0.546237309767813
1180,0.544974990603381
1181,0.543661036793869
1182,0.542651334557792
1183,0.542175432420095
1184,0.542068165579287
1185,0.542153785718426
1186,0.542590575121465
1187,0.543627317011432
1188,0.545272542083608
1189,0.547483234841882
1190,0.550463517517858
1191,0.554431913691618
1192,0.559391300363637
1193,0.565373447341277
1194,0.572662776525076
1195,0.581525841187855
1196,0.591863982631609
1197,0.603451447883829
1198,0.616189855815193
1199,0.629739731806897
1200,0.643067728039469
1201,0.654720460478071
1202,0.663378129998162
1203,0.668107338795537
1204,0.668714277108947
1205,0.666002767931122
1206,0.661291992003596
1207,0.65524344758054
1208,0.647502071301717
1209,0.637640898411267
1210,0.625729119917763
1211,0.61200720237714
1212,0.596601284718273
1213,0.579871278465439
1214,0.562602861035684
1215,0.545502510743928
1216,0.528909896072406
1217,0.513139759363669
1218,0.498710662346879
1219,0.485991027526015
1220,0.47493342608558
1221,0.46531148845189
1222,0.456981762346214
1223,0.449756513875567
1224,0.443235537727815
1225,0.437101306664047
1226,0.431384112005493
1227,0.42620834359405
1228,0.421470866906994
1229,0.416959135847582
1230,0.412628712451787
1231,0.408499077085969
1232,0.40444553482497
1233,0.400381547082403
1234,0.396481336526995
1235,0.392961861195584
1236,0.389764603445518
1237,0.38671792863519
1238,0.383893006451336
1239,0.381484641451129
1240,0.379431385918235
1241,0.377445321066002
1242,0.375365583551261
1243,0.373212784807418
1244,0.370954445274727
1245,0.368527039333639
1246,0.366073504052256
1247,0.363863103003753
1248,0.361938919553994
1249,0.360048740303457
1250,0.357925371504112
1251,0.355459659870735
1252,0.352655539071672
1253,0.349609978763102
1254,0.346519350543282
1255,0.343524696422329
1256,0.340557245466417
1257,0.337469874866362
1258,0.334258920568209
1259,0.330993885301544
1260,0.327634484489437
1261,0.324166781887793
1262,0.320841176077217
1263,0.318001520187983
1264,0.315732744842254
1265,0.313905723633612
1266,0.312512375254156
1267,0.311667740677776
1268,0.311321318391862
1269,0.311232607267492
1270,0.311237159788557
1271,0.311310637889086
1272,0.31139896476773
1273,0.311453007004675
1274,0.311604667080035
1275,0.312054708231769
1276,0.31280589910237
1277,0.313716186683573
1278,0.314778953297824
1279,0.316079329041296
1280,0.317497214373989
1281,0.318753908074147
1282,0.319776686608312
1283,0.320731930958808
1284,0.321706511304575
1285,0.322646433338108
1286,0.323602140212188
1287,0.324718408873978
1288,0.325954626592566
1289,0.327133863753207
1290,0.328271352445279
1291,0.329543803771049
1292,0.330958839419368
1293,0.332368443319376
1294,0.333786037420741
1295,0.335359149267175
1296,0.337043960276727
1297,0.338637369311984
1298,0.340140149180209
1299,0.34175097897923
1300,0.343520093796222
1301,0.345329588290614
1302,0.347198854415338
1303,0.349270682078571
1304,0.351507595710473
1305,0.353750679335242
1306,0.356040385976414
1307,0.358543627947509
1308,0.361180093344517
