"Wave Length","Absorbance"
450,0.776626194720005
451,0.781503555194797
452,0.785777696761739
453,0.788825401658817
454,0.791644695419075
455,0.794740599344509
456,0.789939136419726
457,0.788141171677088
458,0.789015448997324
459,0.789854445870791
460,0.788234165004742
461,0.78579948996846
462,0.785341153180082
463,0.78540347022408
464,0.783518294120092
465,0.780588098358168
466,0.778351360267354
467,0.775504673019757
468,0.770128527034726
469,0.763779229552652
470,0.758460252778284
471,0.752045189222174
472,0.741127352606005
473,0.72715111039226
474,0.714274539364188
475,0.702585517185465
476,0.69020783926037
477,0.677697358930289
478,0.666427238122249
479,0.655536054273221
480,0.643675503982205
481,0.631729429041945
482,0.6209083870073
483,0.609838356105682
484,0.596448296569387
485,0.581501840519018
486,0.567354689111841
487,0.554575072552863
488,0.542482390992482
489,0.531175931933036
490,0.520929365797696
491,0.510932433511048
492,0.500517160825208
493,0.49075396460003
494,0.48285038802003
495,0.476036437452079
496,0.469138867451901
497,0.462640524554926
498,0.457584265235228
499,0.453589529511387
500,0.449596139903566
501,0.445752201354745
502,0.442801642645101
503,0.440247934550231
504,0.437225319704772
505,0.43421643991738
506,0.432108762744713
507,0.430584142021628
508,0.428806323277944
509,0.42705098813784
510,0.425898166222911
511,0.424769505876693
512,0.42281233824213
513,0.420321690187034
514,0.41804002661528
515,0.4156017016402
516,0.412246865030746
517,0.408490106636813
518,0.405537600235193
519,0.40331968220288
520,0.401080435168456
521,0.399229332205856
522,0.398571042765717
523,0.398704975686433
524,0.398671033890705
525,0.398547045464952
526,0.399099853920798
527,0.400131270904971
528,0.400795218267061
529,0.401197785416655
530,0.401882678508877
531,0.402646982784751
532,0.403055770720537
533,0.403449054265882
534,0.404311526674485
535,0.405086524096368
536,0.404930219396091
537,0.404187109133846
538,0.403854495030893
539,0.403936319943425
540,0.403833029998452
541,0.403672694769696
542,0.40398386384778
543,0.404544377577428
544,0.404891330094554
545,0.40540485440908
546,0.406586979931211
547,0.407792946140971
548,0.408114434850786
549,0.407999227786481
550,0.408512321523286
551,0.409682617210803
552,0.410881632970413
553,0.412198424869816
554,0.41407537054994
555,0.416229179011197
556,0.418195238552722
557,0.420396471457086
558,0.423267556390894
559,0.425919765415355
560,0.427106334931232
561,0.427017450716199
562,0.426747267442737
563,0.426565083992276
564,0.426238763150456
565,0.426327539436187
566,0.427616232855938
567,0.429696705462928
568,0.431529543085479
569,0.432937611639665
570,0.434281349630025
571,0.435197677021831
572,0.435201924356778
573,0.434902601022539
574,0.435143515426877
575,0.435677923094249
576,0.435842167004986
577,0.436022626927362
578,0.436913526506879
579,0.438044841294882
580,0.438522899711265
581,0.438605652244788
582,0.439123921715501
583,0.439915793357118
584,0.440356134771066
585,0.440773736988756
586,0.442018693564685
587,0.444008898578035
588,0.446018515189169
589,0.447881546162542
590,0.449750737637279
591,0.451118143277696
592,0.451507533842768
593,0.45174641252159
594,0.453040771693893
595,0.455238109719991
596,0.45728135449845
597,0.458737218193217
598,0.459690660614451
599,0.459796901973472
600,0.458683029486838
601,0.456935854994666
602,0.455357159334757
603,0.45366441721628
604,0.451179992974884
605,0.448148952627288
606,0.445212062770619
607,0.442113217025122
608,0.438244433809946
609,0.43405106400514
610,0.430487064520005
611,0.427431732613206
612,0.424216306888002
613,0.421078433180793
614,0.418811634065874
615,0.417485089171445
616,0.41690049469364
617,0.417836630969733
618,0.421144255605553
619,0.425669615755667
620,0.428749515093102
621,0.42900424940962
622,0.4273473844909
623,0.425071483807788
624,0.422039987361423
625,0.417011015478384
626,0.408907440493405
627,0.397818040170175
628,0.385367031384841
629,0.373947097245881
630,0.365095862422859
631,0.358640132567798
632,0.353815322389924
633,0.350567780021948
634,0.349095154648943
635,0.348819260100377
636,0.348864791020735
637,0.349215107454969
638,0.350351167807021
639,0.352066930600047
640,0.35390439140729
641,0.3564673277713
642,0.360687838119414
643,0.365680698327255
644,0.368627847406836
645,0.367128503027884
646,0.361054561296686
647,0.352333096939132
648,0.343635410517206
649,0.337097516344379
650,0.333199372336958
651,0.330687862899953
652,0.328343620744063
653,0.326339139094619
654,0.325240423409016
655,0.324657860375391
656,0.323810094205988
657,0.322866216743933
658,0.322419817098711
659,0.322348357701498
660,0.322303648757224
661,0.322562765437762
662,0.323175797648878
663,0.323299541768695
664,0.321814652325516
665,0.318231936139562
666,0.312715645935296
667,0.306025963575769
668,0.302479818189788
669,0.307665621680411
670,0.316605126026574
671,0.323960494205526
672,0.328996231974781
673,0.332461292856749
674,0.335155637905852
675,0.337413490182292
676,0.339383589720871
677,0.341079813846108
678,0.342266848377616
679,0.342646055223728
680,0.342231425386731
681,0.341351528059862
682,0.340245712200743
683,0.339278433617522
684,0.338938706775174
685,0.339472707652994
686,0.340849659739132
687,0.343010599325779
688,0.345978796549502
689,0.349682976826738
690,0.354005842528505
691,0.358979083648513
692,0.364709375536073
693,0.371323667291153
694,0.378939003243165
695,0.387689298857054
696,0.397826994365088
697,0.409480771302816
698,0.422416748037759
699,0.435933185311201
700,0.448838401548357
701,0.459713327367983
702,0.467200057805874
703,0.470511360925549
704,0.470177791789185
705,0.468292384518687
706,0.46799653944176
707,0.47245314107439
708,0.483897510175492
709,0.502379261456161
710,0.523606931889163
711,0.538034652737841
712,0.534572462808107
713,0.50807326068841
714,0.464087768133056
715,0.415174592137817
716,0.372573279980272
717,0.341254401041178
718,0.320679175251954
719,0.308180744266883
720,0.301263186622633
721,0.298022980747313
722,0.297003194318991
723,0.297264731203391
724,0.298353350340678
725,0.300008623687989
726,0.301937829602502
727,0.30389529734579
728,0.305800351618392
729,0.30761090519491
730,0.309203944318505
731,0.310492862526211
732,0.311595813161522
733,0.312685995778615
734,0.313809020081648
735,0.315025082521774
736,0.316485060409897
737,0.318227615503906
738,0.320042038972193
739,0.321644938738134
740,0.322859500024455
741,0.32354470022088
742,0.323537155953893
743,0.322846336226096
744,0.321821671245986
745,0.320954836580126
746,0.320536712492319
747,0.32059815862034
748,0.321088512863692
749,0.321937968693612
750,0.323000954338908
751,0.324137760808676
752,0.325377332246503
753,0.326860131510761
754,0.328598900932784
755,0.330425743263206
756,0.33218518937129
757,0.333846163287568
758,0.33542693584348
759,0.336973917935331
760,0.338618465431756
761,0.340503934111022
762,0.342632999019617
763,0.34491812034019
764,0.34739784194639
765,0.35025867967678
766,0.353640982913999
767,0.357582361133696
768,0.362143456107311
769,0.367331292768927
770,0.372765682426578
771,0.377621315333558
772,0.381131098465608
773,0.383163081420128
774,0.384249290686753
775,0.385136969089232
776,0.386370519836684
777,0.388132037276561
778,0.390286250825363
779,0.392573036582617
780,0.394822400849756
781,0.396966218824952
782,0.39886612955729
783,0.400265586672257
784,0.400969916264833
785,0.400981197465098
786,0.400422528444731
787,0.399448953589555
788,0.398267839501279
789,0.397070027385639
790,0.395869498706933
791,0.394547665937275
792,0.393097801750115
793,0.391662753460914
794,0.390276926743064
795,0.388783479470978
796,0.387103262984106
797,0.385389916023226
798,0.383804571494425
799,0.382323748912003
800,0.380894053455181
801,0.379621942726899
802,0.378731303230667
803,0.378454386581602
804,0.378917783836133
805,0.379833147158956
806,0.380282569028361
807,0.379224772263048
808,0.376485617823652
809,0.373014444313068
810,0.369990876831117
811,0.367894863393778
812,0.366551157855725
813,0.365706566551132
814,0.365219377534123
815,0.364906091768625
816,0.36456366794611
817,0.364137495546384
818,0.36370101172697
819,0.363362459980902
820,0.363313792363382
821,0.363806159071457
822,0.36494921260034
823,0.36671000827012
824,0.36921256851467
825,0.37269190261219
826,0.376802838591264
827,0.380154047192646
828,0.38095070635711
829,0.378226179483733
830,0.372484807999034
831,0.365384488685919
832,0.358879517433284
833,0.354308283075821
834,0.35189505848189
835,0.351083254230189
836,0.351346516635922
837,0.352515748111925
838,0.354437789770222
839,0.356791600591331
840,0.359470863732389
841,0.362772036266683
842,0.367028817258665
843,0.372417686946209
844,0.379206279184622
845,0.387417064863206
846,0.395627931966695
847,0.400829725376832
848,0.400745666541416
849,0.396542176644177
850,0.392382219437596
851,0.391976625768919
852,0.396101272135442
853,0.403228043587567
854,0.411654357997173
855,0.42064098267055
856,0.430130562577888
857,0.440272657711229
858,0.451318021634084
859,0.463500891585531
860,0.476928592244213
861,0.49166060351032
862,0.507811945898989
863,0.525471840204067
864,0.544620624720394
865,0.565319229200785
866,0.587793406468389
867,0.612106532747699
868,0.637622631768124
869,0.662647443053335
870,0.684305160875961
871,0.698942997840274
872,0.703519865411585
873,0.697048586927711
874,0.680723357582227
875,0.656627204244128
876,0.62683113275326
877,0.593472573021606
878,0.558708062313005
879,0.52452136689847
880,0.492487098869251
881,0.463243808373191
882,0.435810220665507
883,0.407923164269504
884,0.378003319739784
885,0.346996744799841
886,0.318160620277018
887,0.295018303050605
888,0.27950502163071
889,0.271401826664263
890,0.268946017082624
891,0.269922879994683
892,0.272517790331583
893,0.275747006144005
894,0.279273797580789
895,0.282940686333522
896,0.286505474310021
897,0.289700273320442
898,0.292389386934159
899,0.294554071812198
900,0.296225648087079
901,0.297508637492998
902,0.298605397006255
903,0.299752539190783
904,0.301145306250476
905,0.302914944715111
906,0.305111398636186
907,0.307693140549795
908,0.310608382694545
909,0.313891878213117
910,0.317609890064802
911,0.321715656806026
912,0.32603513205949
913,0.330417178889663
914,0.334790898265954
915,0.339054974945755
916,0.343024488539829
917,0.346547072621335
918,0.34958571413396
919,0.35215013540519
920,0.354251554536564
921,0.355947854473726
922,0.357345962910154
923,0.358522324881926
924,0.359529005361216
925,0.360492954307896
926,0.361602328560744
927,0.362979015569658
928,0.364652988809324
929,0.366663769379844
930,0.369082072766829
931,0.371947264101255
932,0.375277092261204
933,0.379082530302296
934,0.383161223355919
935,0.386853365806228
936,0.389262716752125
937,0.389934562255178
938,0.389257716714454
939,0.388137599311553
940,0.387351522862143
941,0.387190822396521
942,0.38752622004681
943,0.388070091576199
944,0.388646862930985
945,0.389318100142823
946,0.39025328406126
947,0.39150768529325
948,0.392990600514183
949,0.394626379968071
950,0.396409893557858
951,0.398302085781079
952,0.400218875396833
953,0.402159233578525
954,0.40422554102221
955,0.406462451983584
956,0.408800303884086
957,0.411194050660036
958,0.413687394161031
959,0.416296345626004
960,0.418953249462378
961,0.421621170254469
962,0.424340285356423
963,0.427118597751654
964,0.429933942451759
965,0.432895100280802
966,0.436208641758715
967,0.439836955106909
968,0.443299892842976
969,0.445978045496701
970,0.447612396876787
971,0.448471123879204
972,0.449128203501922
973,0.450116890598869
974,0.451670093318407
975,0.453688905086625
976,0.455955721169958
977,0.458385195520052
978,0.461033697108424
979,0.463941029067702
980,0.467096941548734
981,0.470527150069275
982,0.474254115598104
983,0.478145539455752
984,0.481966125507312
985,0.485607778300005
986,0.489134438105309
987,0.492607717799628
988,0.496037974488508
989,0.499526093655101
990,0.503266424392261
991,0.5073742496961
992,0.511884325680745
993,0.516895667560431
994,0.522482707733923
995,0.5284411636932
996,0.534372427128356
997,0.540146397033202
998,0.54604890271635
999,0.552403625188106
1000,0.559298691628278
1001,0.566740248172055
1002,0.574806851649713
1003,0.583476234244238
1004,0.592529516522258
1005,0.601776747640669
1006,0.611165308165842
1007,0.620569112126681
1008,0.629734116397166
1009,0.63856864797578
1010,0.647211648241711
1011,0.655689137361199
1012,0.663784674451838
1013,0.671383575470292
1014,0.678631322273537
1015,0.685620355351125
1016,0.692291733712568
1017,0.698780334178036
1018,0.7054816742749
1019,0.712630415653944
1020,0.720207186813612
1021,0.728391739602915
1022,0.737691881493126
1023,0.748476617412181
1024,0.760810519529618
1025,0.774826838607469
1026,0.790443919710416
1027,0.806092113043867
1028,0.818240280849261
1029,0.823271197729836
1030,0.820241347453642
1031,0.811878467224005
1032,0.803104278860369
1033,0.798459168131864
1034,0.800045835293439
1035,0.807047639362452
1036,0.816948750816966
1037,0.827279071031612
1038,0.836545957927549
1039,0.844114905868857
1040,0.850039539507848
1041,0.855023956179452
1042,0.859905855189304
1043,0.864934388214971
1044,0.869893472559046
1045,0.874822526494992
1046,0.880035143015949
1047,0.885465431638091
1048,0.89066443565944
1049,0.895561091752184
1050,0.900567362199174
1051,0.905818908715136
1052,0.911008106588413
1053,0.916102928167418
1054,0.921509792524269
1055,0.927344891868692
1056,0.933199863245207
1057,0.938748591907641
1058,0.943967815753898
1059,0.948699439226749
1060,0.952680762872937
1061,0.956121832098996
1062,0.959597560966115
1063,0.963237004357174
1064,0.966658416246796
1065,0.969708851606647
1066,0.972571804287745
1067,0.975180274547285
1068,0.977320444163957
1069,0.979360388491683
1070,0.982032030735059
1071,0.985406580362301
1072,0.988862573705846
1073,0.992089849973036
1074,0.99525762455961
1075,0.998114180907563
1076,0.999834029279919
1077,1
1078,0.998861599158348
1079,0.996517647678513
1080,0.99275069525806
1081,0.98777508164499
1082,0.982316205076434
1083,0.976744356157144
1084,0.970969032435664
1085,0.965220038811158
1086,0.960071460033295
1087,0.955629799532256
1088,0.951481410783831
1089,0.947501563874091
1090,0.943942402383053
1091,0.940703557732215
1092,0.937325349584824
1093,0.93379970147669
1094,0.930587004260297
1095,0.927746114586558
1096,0.924814173448997
1097,0.92161914761449
1098,0.918413153483073
1099,0.915126401497374
1100,0.91129553914501
1101,0.906849071811849
1102,0.902164219870865
1103,0.897304439566623
1104,0.891816815980577
1105,0.885542306113668
1106,0.87877591889419
1107,0.871537298457554
1108,0.863461507035812
1109,0.854473606404485
1110,0.844933909515707
1111,0.834990116179544
1112,0.824506800074154
1113,0.813698685874954
1114,0.80313169622814
1115,0.793054407345758
1116,0.783321229599561
1117,0.773990862093405
1118,0.765396128346929
1119,0.757602016451446
1120,0.750338557348687
1121,0.743495039169038
1122,0.737108109747766
1123,0.730842695474352
1124,0.72408041697664
1125,0.716609021313261
1126,0.708720791428628
1127,0.700629367464104
1128,0.692385596113018
1129,0.684440638753083
1130,0.67759485951493
1131,0.672132167645022
1132,0.667567422781503
1133,0.663375939691319
1134,0.659463525284278
1135,0.65582421092494
1136,0.652282158210276
1137,0.648768522560372
1138,0.645446267239904
1139,0.642393211791694
1140,0.6394779318648
1141,0.636688400109014
1142,0.6342508333283
1143,0.632284507136781
1144,0.630687127291088
1145,0.629449734765413
1146,0.628742961644285
1147,0.628573896734643
1148,0.628671728131769
1149,0.62884666428874
1150,0.62912199188155
1151,0.629387222338201
1152,0.629245147336542
1153,0.628359213542641
1154,0.626638680395255
1155,0.6240230982924
1156,0.620450835924282
1157,0.616125705515973
1158,0.611506996868719
1159,0.606895410113945
1160,0.602316889599671
1161,0.597854747122106
1162,0.593755750536825
1163,0.590129520029314
1164,0.586851812650495
1165,0.583859602432274
1166,0.581243746860141
1167,0.578963771073478
1168,0.576751830192226
1169,0.574437436103294
1170,0.572121951828164
1171,0.569940722233557
1172,0.567929023145094
1173,0.566190075211297
1174,0.564921853356328
1175,0.564142393649953
1176,0.563589706667944
1177,0.562990282438036
1178,0.562215305683122
1179,0.56115780317168
1180,0.559760648599915
1181,0.558253797973785
1182,0.557070435599421
1183,0.55640195010128
1184,0.556103000187071
1185,0.556094381237059
1186,0.556539042841498
1187,0.557581068649783
1188,0.559195697664239
1189,0.561422518838146
1190,0.564502269536681
1191,0.568593345886404
1192,0.573679013063479
1193,0.579837176949326
1194,0.587313845810325
1195,0.596236252267881
1196,0.606459834513653
1197,0.617888642312705
1198,0.630568240235649
1199,0.64419367337929
1200,0.657718486053937
1201,0.669664444395434
1202,0.678596086938031
1203,0.683402528875186
1204,0.683833108324421
1205,0.680811864374997
1206,0.675803748719018
1207,0.669545445254481
1208,0.661738681428037
1209,0.651991591878206
1210,0.640304670097906
1211,0.626791472921513
1212,0.611547271373517
1213,0.59500000280517
1214,0.577951126411661
1215,0.561049357468534
1216,0.544633519630692
1217,0.529096176168819
1218,0.51498991965842
1219,0.502645434943319
1220,0.492002232158492
1221,0.482844031931757
1222,0.474951060774672
1223,0.467989334421282
1224,0.461500210620931
1225,0.455239102885679
1226,0.449321517591355
1227,0.443914070704833
1228,0.438978589856768
1229,0.434385841389865
1230,0.430098012371602
1231,0.426074624520145
1232,0.422174130497233
1233,0.418334793426642
1234,0.414692499904098
1235,0.411382102526579
1236,0.408347939875064
1237,0.405498081999594
1238,0.402922948932733
1239,0.400764168741135
1240,0.398956030099275
1241,0.39725522813678
1242,0.395471127727452
1243,0.393545479863807
1244,0.391485649948728
1245,0.389372628300449
1246,0.387360135699204
1247,0.385516002581581
1248,0.383702063160005
1249,0.381710610976169
1250,0.379453980219468
1251,0.376935032378148
1252,0.374157233314669
1253,0.371175328384208
1254,0.368150593334741
1255,0.365218023185897
1256,0.362336014472427
1257,0.359365071125169
1258,0.356241074017755
1259,0.352971002039791
1260,0.34955735616181
1261,0.346095232268002
1262,0.342869803412315
1263,0.340180782029106
1264,0.338105661743896
1265,0.336543968152203
1266,0.335450320764604
1267,0.334853297271346
1268,0.334697329944967
1269,0.334829008634194
1270,0.335127359513747
1271,0.335518910555532
1272,0.335901386308501
1273,0.336222308638627
1274,0.336601324771021
1275,0.337220080415789
1276,0.338117738102845
1277,0.339210772516264
1278,0.340470927110701
1279,0.341908699816933
1280,0.343411273139613
1281,0.344793508437627
1282,0.346020113134323
1283,0.347188745167043
1284,0.348322786120846
1285,0.349370703120694
1286,0.350383814077128
1287,0.351481531229181
1288,0.352655201944154
1289,0.353834374818497
1290,0.355099172515065
1291,0.356594821946798
1292,0.358281246289537
1293,0.359995002063493
1294,0.361719156605451
1295,0.363549066609477
1296,0.365439465394246
1297,0.367246139660294
1298,0.368997161765757
1299,0.370853528763423
1300,0.372838189956434
1301,0.37485209238238
1302,0.376929875965106
1303,0.379201720954439
1304,0.381625789229872
1305,0.384042956938127
1306,0.386462214107099
1307,0.389031864805275
1308,0.391739802573366
