"Wave Length","Absorbance"
450,0.824655743545519
451,0.830396591229768
452,0.837329488095518
453,0.836868013778112
454,0.842382006315897
455,0.84789470569337
456,0.849127316674295
457,0.847151538231558
458,0.845331086150098
459,0.84540004118626
460,0.845393642782084
461,0.845102219866678
462,0.84575990218501
463,0.846744925982556
464,0.846219934381842
465,0.844154248457839
466,0.841512542206972
467,0.837851534360322
468,0.83222898782091
469,0.825685797682139
470,0.819544245294162
471,0.812289728717386
472,0.801267581434798
473,0.787393476262765
474,0.774156598403495
475,0.761907022254893
476,0.748635601279781
477,0.734103734555962
478,0.719879863020765
479,0.70658313160135
480,0.693468522686411
481,0.680225008832024
482,0.667154280916081
483,0.653785094004652
484,0.63926112666809
485,0.623962840043121
486,0.609186269105383
487,0.595435672764559
488,0.582346828904045
489,0.569800329785399
490,0.557968025334905
491,0.546603493326108
492,0.535340644988638
493,0.524682691475369
494,0.515502827244464
495,0.507606154661624
496,0.500193961486703
497,0.493243738402224
498,0.487432297176577
499,0.482776165149576
500,0.478398825526367
501,0.473845694872792
502,0.469594222916052
503,0.466025018706063
504,0.462829132203525
505,0.4596936168581
506,0.456846465191175
507,0.454587189598902
508,0.452913981095666
509,0.451824026244434
510,0.451154785010316
511,0.450183479539188
512,0.448118144662731
513,0.445037459430645
514,0.441767434541997
515,0.438650365181419
516,0.435391960359405
517,0.432095767255736
518,0.429461691174409
519,0.427486137675274
520,0.42525472052243
521,0.422595912701929
522,0.42051774681955
523,0.419809584493337
524,0.420165641277268
525,0.420808566039411
526,0.42131795279383
527,0.421652086758717
528,0.421952302791492
529,0.422575848676075
530,0.423728029432472
531,0.425034230427411
532,0.425806026846863
533,0.425883103848236
534,0.425805678409254
535,0.425939841049823
536,0.426051417847964
537,0.425888290601422
538,0.4255920227567
539,0.425224286541012
540,0.424713496219072
541,0.424284129877509
542,0.424312480931346
543,0.424648690032208
544,0.424800137640088
545,0.424800501190313
546,0.42518343749765
547,0.426046730347263
548,0.426924772138532
549,0.427683865779752
550,0.428661259436792
551,0.429897756989057
552,0.431084870460011
553,0.432348170688991
554,0.434199518804733
555,0.436634147708933
556,0.439032489253798
557,0.44113512175035
558,0.443264380069259
559,0.445419746708499
560,0.447028265859998
561,0.447791961615374
562,0.44800485091027
563,0.447919067239707
564,0.447684234928674
565,0.447846535557607
566,0.449006807719052
567,0.450921998788667
568,0.452750006920412
569,0.454147285847355
570,0.455374502642072
571,0.456380609121729
572,0.456868764381812
573,0.457141245746001
574,0.457738262579511
575,0.458431204786896
576,0.458495705076353
577,0.458111124865291
578,0.458265350757991
579,0.459253517421948
580,0.460432994164823
581,0.461403579036704
582,0.462374235859062
583,0.463343563607033
584,0.464025583855633
585,0.464638509137279
586,0.465854716457854
587,0.467723365803884
588,0.469559982398659
589,0.471001816749583
590,0.472396038785549
591,0.473988563830504
592,0.475617402767419
593,0.477339986326428
594,0.479464716541016
595,0.481826112194473
596,0.483856697010132
597,0.485420658448319
598,0.486751795475536
599,0.487675604295972
600,0.487716471617018
601,0.487007164341999
602,0.486060966940833
603,0.484648439346608
604,0.48203342151357
605,0.478262041976569
606,0.474205023808277
607,0.470193182713132
608,0.465728282714081
609,0.460758306610038
610,0.456000732322314
611,0.451661446882561
612,0.447286588671964
613,0.442861250701662
614,0.439047934480612
615,0.436315661494035
616,0.434914452414913
617,0.435692597877754
618,0.439448501875825
619,0.44499121956616
620,0.449255348997309
621,0.450214994685276
622,0.448677309915299
623,0.446494666709062
624,0.443812934435489
625,0.438828486478449
626,0.429792040248571
627,0.416858707023642
628,0.402196782990025
629,0.388580524855815
630,0.377780453810083
631,0.369874994668793
632,0.364184421087886
633,0.360417271012166
634,0.35852385036447
635,0.357952158285776
636,0.357900590337424
637,0.358233385478279
638,0.359333985784416
639,0.361091404261978
640,0.363127381262001
641,0.366025928992472
642,0.370744012457802
643,0.376419062402854
644,0.379984225450694
645,0.378565192252524
646,0.371834002302737
647,0.362042601479183
648,0.352335055709002
649,0.345139661499157
650,0.341071207156932
651,0.338829017138781
652,0.336914826721457
653,0.335168631866163
654,0.334012300812287
655,0.333096202886096
656,0.331709538955141
657,0.33018599815607
658,0.329400682317884
659,0.329373791138875
660,0.32954305074652
661,0.329849909202049
662,0.330202726953411
663,0.329906809095688
664,0.327954544956412
665,0.323807957803391
666,0.317543248454777
667,0.309729998175355
668,0.304463686870647
669,0.309250790432849
670,0.319490565359658
671,0.32862734516769
672,0.33520601987564
673,0.339596208461572
674,0.342561957910184
675,0.344884349567316
676,0.347068207344817
677,0.348943623679366
678,0.350019428522193
679,0.350172024946865
680,0.349610204517935
681,0.348455074089964
682,0.346719742566657
683,0.345082340634276
684,0.344469170853136
685,0.345052637156857
686,0.346508898680036
687,0.348779881725074
688,0.351953976872467
689,0.355744770619997
690,0.359937543875311
691,0.364904380562735
692,0.370965755357485
693,0.377944487520778
694,0.385615005874306
695,0.394226454012269
696,0.404330874934066
697,0.416080368598835
698,0.429212036515758
699,0.443223010480906
700,0.456938655561437
701,0.468462397608966
702,0.475865725114787
703,0.478163690898211
704,0.475931240795077
705,0.471263294345523
706,0.467477688121645
707,0.468202320462535
708,0.476017078546687
709,0.491049531885002
710,0.509325983903621
711,0.52217351593612
712,0.519297227384504
713,0.49533515051414
714,0.454801333420722
715,0.409432917773748
716,0.370156109905621
717,0.341718330138369
718,0.323378254186608
719,0.312499016510256
720,0.306708770072678
721,0.304105320402255
722,0.30329495431638
723,0.303618366908235
724,0.30480994956483
725,0.306498116675993
726,0.308285912672652
727,0.310080225016403
728,0.311935348394175
729,0.313687498111491
730,0.315131726975085
731,0.316375519740945
732,0.317683108635812
733,0.319002671131298
734,0.320098744836435
735,0.321112723498704
736,0.322417764286355
737,0.324026267984876
738,0.325605010639589
739,0.326964525796783
740,0.328089723551668
741,0.328808845770452
742,0.328872109849881
743,0.328329011749199
744,0.327505707646071
745,0.326687484563537
746,0.326081690352745
747,0.325942316088914
748,0.326404235320137
749,0.327286160291461
750,0.32833286793406
751,0.329555787461992
752,0.331096507782265
753,0.332890085978151
754,0.334723925039172
755,0.336517756634772
756,0.338298456807307
757,0.339997083889565
758,0.34154048767958
759,0.343078368873136
760,0.344861471105623
761,0.346943812931433
762,0.349204513825219
763,0.351582922139201
764,0.354117634847403
765,0.356868312496882
766,0.360012072120491
767,0.363910743624795
768,0.368815407126571
769,0.374473457411913
770,0.380126488040966
771,0.384872281118057
772,0.388049366827703
773,0.389549543873311
774,0.389956418002576
775,0.390226181510385
776,0.391021491881904
777,0.392367259093212
778,0.393970713584159
779,0.395663555093908
780,0.397405620058565
781,0.399073697970403
782,0.400481267853174
783,0.401506793606671
784,0.402046370544821
785,0.401967653762064
786,0.40127331525644
787,0.400195839284504
788,0.398984548695262
789,0.397688888033608
790,0.396273482151428
791,0.394803657422896
792,0.393353217392759
793,0.391855125020061
794,0.390209916266711
795,0.38845957862741
796,0.386709069310718
797,0.384968492200193
798,0.383219372454637
799,0.381549762899845
800,0.380081727566103
801,0.378866225676739
802,0.378022714571625
803,0.377853343334584
804,0.378524212566616
805,0.379567952965903
806,0.379918435672803
807,0.378638512847558
808,0.375685909566583
809,0.371961900465066
810,0.368617073894579
811,0.366266817645519
812,0.36479009954705
813,0.363770203938329
814,0.36297510792839
815,0.362384763194005
816,0.361931026844256
817,0.361457577216158
818,0.360946691480851
819,0.360613238579047
820,0.360709955827932
821,0.361332095074553
822,0.362488160841077
823,0.364293298025691
824,0.367013952258461
825,0.370823029779584
826,0.37530723139066
827,0.379088731242435
828,0.380208830871151
829,0.377365517637091
830,0.371008748242646
831,0.363153411474979
832,0.356038648683039
833,0.350928355618721
834,0.34794196102598
835,0.346654368935637
836,0.346647836717922
837,0.347627727457254
838,0.349344827492954
839,0.351602318889695
840,0.354352890031685
841,0.357679501644336
842,0.361713712676921
843,0.36665830659892
844,0.372796988339957
845,0.380037638129614
846,0.387093459288361
847,0.391514640654841
848,0.391445670202756
849,0.38778747210867
850,0.384063152955347
851,0.38361971847842
852,0.387226890396645
853,0.393438660344771
854,0.400676449770866
855,0.408409154147789
856,0.416690006029366
857,0.425554875710392
858,0.435131481242669
859,0.44572871469158
860,0.457572488447164
861,0.470707587305062
862,0.485224074611908
863,0.501284295313374
864,0.518871572348172
865,0.537902473858887
866,0.55856082517555
867,0.581102176348521
868,0.605085635069418
869,0.628890333004759
870,0.649848944515838
871,0.664702351075336
872,0.670512986162621
873,0.665843493436172
874,0.651354632672759
875,0.628985674594018
876,0.600847476328674
877,0.568988395419123
878,0.535514228205956
879,0.502574354654023
880,0.471903793970673
881,0.444135449354342
882,0.418320464606411
883,0.392368745271987
884,0.364724687860537
885,0.336062900956191
886,0.309369635602977
887,0.288108986554931
888,0.27417685058194
889,0.26721641539968
890,0.265462186848134
891,0.266952633850715
892,0.270099689290993
893,0.273865323801584
894,0.27774166601116
895,0.281531770947079
896,0.285068432607469
897,0.288182793575257
898,0.290878821338045
899,0.29325223791251
900,0.295253730537258
901,0.296769288669377
902,0.297936029461759
903,0.299135612076072
904,0.300650095851545
905,0.30253967563182
906,0.304832328094739
907,0.307571048383475
908,0.310666815188121
909,0.313966091991853
910,0.317492100193607
911,0.321400146998874
912,0.325663466013099
913,0.330046722522693
914,0.334373268938056
915,0.338567366202621
916,0.342445129114003
917,0.345759264147118
918,0.348490697351037
919,0.350845462837987
920,0.352943558489916
921,0.354721469401203
922,0.356164799408601
923,0.357388164013779
924,0.358468892483904
925,0.359432869107006
926,0.360437278333889
927,0.361755724686452
928,0.363526521101893
929,0.365674090619393
930,0.368097694171657
931,0.370820133320835
932,0.373947012882893
933,0.377564569916417
934,0.381534823461667
935,0.385221614424605
936,0.387621621300598
937,0.388136977852881
938,0.38719432701987
939,0.385872323508163
940,0.384977235636397
941,0.384666674069965
942,0.384796418946286
943,0.385236823124058
944,0.385863406780942
945,0.38659379375129
946,0.387535714404371
947,0.38887583789556
948,0.39058258936286
949,0.392423209416331
950,0.39426663181459
951,0.39615886385158
952,0.398129746583066
953,0.400159658007234
954,0.402326703549299
955,0.404731906084819
956,0.407283729258687
957,0.409787630255757
958,0.412236375209672
959,0.414789552705783
960,0.417477766792456
961,0.420171378615416
962,0.422825759959646
963,0.425535172454262
964,0.428382565717802
965,0.43145508924408
966,0.434918373035241
967,0.438748555129971
968,0.442398487476536
969,0.445075904058837
970,0.446481700057977
971,0.447079643227344
972,0.447633742960282
973,0.448660555730372
974,0.450300619808081
975,0.452447366775495
976,0.454882251597109
977,0.457445187840318
978,0.460153512938385
979,0.463104751468794
980,0.466313349225682
981,0.469742787257972
982,0.473404641995616
983,0.477249107988171
984,0.481054260158797
985,0.48461357193405
986,0.487958524702763
987,0.491237452227887
988,0.494486390927098
989,0.49772640012656
990,0.501167594914221
991,0.505084929761309
992,0.509567596395463
993,0.514551736276906
994,0.519970154794371
995,0.525671485076247
996,0.531347051941926
997,0.536840184897913
998,0.542413763076108
999,0.548479848328313
1000,0.555193607092699
1001,0.56249725176112
1002,0.570388788137848
1003,0.578838741504206
1004,0.587601698688529
1005,0.596416015784959
1006,0.605257366988363
1007,0.614149782318105
1008,0.622921234381572
1009,0.631431072764209
1010,0.639795833153548
1011,0.648073828990705
1012,0.655955457964225
1013,0.66313048465079
1014,0.669732312427215
1015,0.676076007668984
1016,0.682238217594018
1017,0.688257746721422
1018,0.694462683149941
1019,0.70119488352631
1020,0.708479399742439
1021,0.716339713634441
1022,0.725184833655904
1023,0.735524198798797
1024,0.747592307794622
1025,0.761531958549809
1026,0.777230530682632
1027,0.793090934582557
1028,0.805328819299144
1029,0.809856182750847
1030,0.805543262233547
1031,0.795551650871456
1032,0.785487938105915
1033,0.780254815334745
1034,0.781882898687313
1035,0.789296631736605
1036,0.799708718726489
1037,0.81046723340061
1038,0.820131794436702
1039,0.828297575508718
1040,0.835118277151711
1041,0.841138743408332
1042,0.847028800484651
1043,0.853047027233411
1044,0.858999098877516
1045,0.864825865700541
1046,0.870784985291909
1047,0.876894029978007
1048,0.88273110823241
1049,0.888099947731923
1050,0.893365550625639
1051,0.89882348906647
1052,0.904304052410007
1053,0.909729668628096
1054,0.915458205094387
1055,0.921671119026128
1056,0.927970414135974
1057,0.933925884766416
1058,0.93951038492438
1059,0.944708260059894
1060,0.949265196074363
1061,0.953181295634761
1062,0.956931141591118
1063,0.960832179896252
1064,0.964676703013381
1065,0.968213358528685
1066,0.971451210893594
1067,0.974318888210377
1068,0.976664821491492
1069,0.978841720745283
1070,0.981597033927991
1071,0.985105783475951
1072,0.98875003164169
1073,0.992059731871882
1074,0.995140160002003
1075,0.997904443731791
1076,0.999678067577426
1077,1
1078,0.99905877059992
1079,0.997000023747214
1080,0.993556508124409
1081,0.988702242169554
1082,0.983034070436335
1083,0.97710764050084
1084,0.97107178442294
1085,0.96517422868781
1086,0.959906429276984
1087,0.955395416051544
1088,0.951261120233579
1089,0.947296171486156
1090,0.943684133159921
1091,0.940410007230833
1092,0.937115995064871
1093,0.93374037914488
1094,0.930615658831669
1095,0.92774387195639
1096,0.924648779686774
1097,0.921146057246308
1098,0.917562164724818
1099,0.913993887435267
1100,0.910047800224166
1101,0.905521864297361
1102,0.900632931125501
1103,0.895449562932793
1104,0.889632492669482
1105,0.883104564844976
1106,0.876174154860802
1107,0.868814519028974
1108,0.860559208585834
1109,0.851253418727484
1110,0.841297594434506
1111,0.830931258073885
1112,0.820020321823333
1113,0.808723357650628
1114,0.797638140983026
1115,0.787102671777661
1116,0.776951575719018
1117,0.767136323406516
1118,0.757976841013143
1119,0.749626578811894
1120,0.741839194954836
1121,0.734448612395068
1122,0.727503311083514
1123,0.720741910736667
1124,0.713527137493958
1125,0.705549821710907
1126,0.697098581342866
1127,0.68846488830368
1128,0.679677330735162
1129,0.67108822291628
1130,0.663552565520759
1131,0.657555930205069
1132,0.652683481531376
1133,0.648279052165267
1134,0.644143812668078
1135,0.640297439831845
1136,0.636564953849085
1137,0.632782718207861
1138,0.629077807427667
1139,0.62562242271899
1140,0.622355355001932
1141,0.619219267263792
1142,0.616396066723459
1143,0.614038101734642
1144,0.612062504797379
1145,0.610430053768416
1146,0.609326532006671
1147,0.608814508305509
1148,0.608584384747913
1149,0.608335604257582
1150,0.608109704503144
1151,0.607964059783647
1152,0.607582369161974
1153,0.606514001019226
1154,0.604546612972522
1155,0.601635976183845
1156,0.597772040533586
1157,0.593147810483849
1158,0.588226512517614
1159,0.58337027445385
1160,0.578613829210991
1161,0.573960293612488
1162,0.569624762654349
1163,0.565791310662945
1164,0.562377986530358
1165,0.559253538595053
1166,0.556449460417597
1167,0.553963422453737
1168,0.55158056464291
1169,0.549133371816734
1170,0.546733752191432
1171,0.544542772259447
1172,0.54253819457693
1173,0.540689557268873
1174,0.539143340605266
1175,0.538004087256604
1176,0.537100730262182
1177,0.536170731828509
1178,0.535094906220536
1179,0.533810204613885
1180,0.532244226153367
1181,0.530536131992269
1182,0.52907700517132
1183,0.528098477796594
1184,0.527463160871505
1185,0.527049396485689
1186,0.527048296813728
1187,0.52770773000936
1188,0.529027384628694
1189,0.530955993233386
1190,0.533685875817459
1191,0.537432389761715
1192,0.542201031879992
1193,0.547989666176064
1194,0.55499647197244
1195,0.563412921535744
1196,0.573154087354306
1197,0.584102448536454
1198,0.596306664091353
1199,0.60954730022334
1200,0.622820596934149
1201,0.634573937497396
1202,0.64331704541654
1203,0.648009832898915
1204,0.648475160701593
1205,0.645599204169139
1206,0.640791953746263
1207,0.634825488020051
1208,0.627449900729352
1209,0.618238823521186
1210,0.607131272083234
1211,0.594205847745298
1212,0.579497966482481
1213,0.563354337641614
1214,0.546578800232453
1215,0.529897136785318
1216,0.513654648743305
1217,0.498164244521342
1218,0.483977537562947
1219,0.471552571967838
1220,0.460915755799205
1221,0.451801207384114
1222,0.44392359287676
1223,0.436954113437013
1224,0.430413771106823
1225,0.423960988237534
1226,0.417678240795275
1227,0.411854811242179
1228,0.406595619303264
1229,0.401788030359799
1230,0.397333440538069
1231,0.393161305803229
1232,0.389123241615269
1233,0.385139237844427
1234,0.38135410537417
1235,0.377950085955544
1236,0.374879454550518
1237,0.371997519780149
1238,0.36937575042454
1239,0.367200072527987
1240,0.365407822588472
1241,0.363677945744176
1242,0.361777721799939
1243,0.359708799846322
1244,0.357541345669258
1245,0.35534259748616
1246,0.353243486409769
1247,0.351333152687049
1248,0.349466309118195
1249,0.347368008305343
1250,0.344928462948133
1251,0.342231980430855
1252,0.339349266315487
1253,0.33628863094747
1254,0.333136049400614
1255,0.330038909382923
1256,0.327021979122103
1257,0.323978263532822
1258,0.320840115155654
1259,0.317599311193423
1260,0.314207623026133
1261,0.310693268398679
1262,0.307342598843549
1263,0.304528738391138
1264,0.302363638417722
1265,0.300711278858737
1266,0.299514986132681
1267,0.298837346450666
1268,0.298601444951966
1269,0.298562261603985
1270,0.298573380240108
1271,0.298665136854865
1272,0.298836735985238
1273,0.299019177221312
1274,0.299265539877413
1275,0.299737209876597
1276,0.300480375016029
1277,0.30141948637962
1278,0.302571090393479
1279,0.30400322638605
1280,0.305558852694928
1281,0.306907268596088
1282,0.307925979002046
1283,0.308772495713422
1284,0.309573016154569
1285,0.310327233945426
1286,0.311127030143129
1287,0.312139460916723
1288,0.313320618678629
1289,0.31446807734437
1290,0.315587906807299
1291,0.316893324400106
1292,0.318429825612656
1293,0.320028343550285
1294,0.321644189045433
1295,0.323393430295103
1296,0.325227186679622
1297,0.326920903820917
1298,0.328449004441508
1299,0.330031436784556
1300,0.331766946968922
1301,0.333550359615801
1302,0.335387852549041
1303,0.33743472304248
1304,0.339677552552965
1305,0.341928794949164
1306,0.344177284496832
1307,0.346598086169857
1308,0.349180500450538
