"Wave Length","Absorbance"
450,0.787116688355125
451,0.793728717763435
452,0.799808209095371
453,0.798505665232603
454,0.802914096017405
455,0.807627841065435
456,0.808351423218033
457,0.807068726076004
458,0.807506736934639
459,0.8091478794906
460,0.808916902702966
461,0.808243643652734
462,0.809374819603434
463,0.81067453975878
464,0.809604129959372
465,0.807135179845004
466,0.804793391247565
467,0.80084322254976
468,0.793531096137739
469,0.785409729751174
470,0.779183886752954
471,0.772582841734555
472,0.761880183931744
473,0.748604431898632
474,0.736796973999395
475,0.725716127004539
476,0.712707503487429
477,0.698427659048345
478,0.685110132017713
479,0.672640570407838
480,0.659652087020138
481,0.646495646114857
482,0.633995608332195
483,0.620921602932207
484,0.605852464025579
485,0.590150495936693
486,0.575986126801951
487,0.563034707002597
488,0.549927140759266
489,0.536902396489399
490,0.524874421439926
491,0.513469748993047
492,0.502035435713062
493,0.491547216189281
494,0.48321039074827
495,0.476206361227873
496,0.469146099153579
497,0.462282944170934
498,0.456626315247499
499,0.451951388971449
500,0.447379577634813
501,0.443137429407548
502,0.439908663631838
503,0.437086926230169
504,0.433816133595366
505,0.4307726547005
506,0.429026573836902
507,0.428164707538334
508,0.426957802668942
509,0.425309495821535
510,0.423761420672192
511,0.422003229273779
512,0.419558677291616
513,0.416981802708617
514,0.41498560835583
515,0.412957487109763
516,0.409854814384837
517,0.405991675799504
518,0.402523189248981
519,0.399549993178235
520,0.396627755013043
521,0.394365723495515
522,0.393535603941425
523,0.393645173664913
524,0.393763446705513
525,0.393984597898819
526,0.394828332947802
527,0.395739875774548
528,0.395898860158508
529,0.395808057050824
530,0.396282256173683
531,0.397057862448135
532,0.397507346586954
533,0.397886042236497
534,0.398708673059275
535,0.399497771005242
536,0.399521102620403
537,0.399119904580436
538,0.398997955171212
539,0.398825072700022
540,0.398102523239965
541,0.397486607939252
542,0.397872020207929
543,0.398849149173026
544,0.399505697825935
545,0.399959756507305
546,0.400713587911903
547,0.401303539417206
548,0.401178300190199
549,0.401120478490895
550,0.402126095481063
551,0.403765369119285
552,0.405134896022319
553,0.406605062423909
554,0.408990212538071
555,0.41183655094831
556,0.414083654019928
557,0.415834699037058
558,0.417815614832167
559,0.419739235198915
560,0.420837676855556
561,0.421374410955826
562,0.422062134107987
563,0.422603064803341
564,0.422481550751856
565,0.422448644503701
566,0.423592601022378
567,0.425545280114001
568,0.427180957078373
569,0.428438163649452
570,0.429904393677471
571,0.43123394056152
572,0.431773848562648
573,0.43203975096358
574,0.432858931660791
575,0.433842471988262
576,0.43412825508464
577,0.434165311302653
578,0.434958131373083
579,0.4362232118535
580,0.436978167809697
581,0.437291872446091
582,0.437871282306131
583,0.438526400707765
584,0.438720733307686
585,0.438973777936466
586,0.440222121508096
587,0.442203174648988
588,0.443974844166848
589,0.44549237223337
590,0.447334888049414
591,0.449310650568741
592,0.450826277476812
593,0.452247337884939
594,0.454334008117852
595,0.4567564934474
596,0.45862997149221
597,0.459956575672321
598,0.461173063675855
599,0.461875886485572
600,0.461371487845779
601,0.460130609310426
602,0.45911669841378
603,0.458075692665316
604,0.456028346834109
605,0.452955640348848
606,0.449621562807456
607,0.446080667201537
608,0.441821499360061
609,0.437123606543709
610,0.432768954340012
611,0.428625695256854
612,0.424152220035583
613,0.419755073583822
614,0.41635024923721
615,0.4140757923571
616,0.412855971203894
617,0.413700165753964
618,0.417620124371276
619,0.423276806657052
620,0.427499298221531
621,0.428489740949396
622,0.427172706219619
623,0.425138665211348
624,0.422375541920106
625,0.417337586007689
626,0.408467339096531
627,0.395700401227851
628,0.381042477901496
629,0.367515834611965
630,0.357122474902402
631,0.349805118943284
632,0.344610843427603
633,0.341143457481352
634,0.339310202548593
635,0.33848487365458
636,0.337995945747943
637,0.33802950042533
638,0.339043310921398
639,0.340690641995472
640,0.342513508426975
641,0.345284009806079
642,0.350019826473469
643,0.355668741145262
644,0.359122814865406
645,0.357766230006611
646,0.351383194979819
647,0.34193422598588
648,0.332294421776936
649,0.324939941250754
650,0.320607072616119
651,0.318038254631646
652,0.315818800545742
653,0.31390968705615
654,0.312727109064552
655,0.311848821772709
656,0.310637483385247
657,0.309482681300456
658,0.309029008654414
659,0.308975527786797
660,0.308780230076868
661,0.308700920169264
662,0.308876318329735
663,0.308607340432865
664,0.306988115179331
665,0.303732044342378
666,0.29893625283995
667,0.292794938429754
668,0.288330350421743
669,0.291906164535079
670,0.300367207435768
671,0.308067240645379
672,0.313466670577457
673,0.317077921368466
674,0.319781178162471
675,0.322063165184779
676,0.324085554272499
677,0.325811753070029
678,0.327007231687607
679,0.327435847945112
680,0.327135224288954
681,0.326374605606054
682,0.32528373251277
683,0.324163618702691
684,0.323567438487082
685,0.323883537810603
686,0.325157923491079
687,0.327277165888365
688,0.33017781093059
689,0.333792410842878
690,0.338075302032716
691,0.3430861666525
692,0.348894518391311
693,0.355603228577316
694,0.363350697313174
695,0.372282063667172
696,0.382632684438162
697,0.394537561145598
698,0.407836549904148
699,0.421928405538274
700,0.435608061050534
701,0.447198899855591
702,0.45485932708373
703,0.457322348523015
704,0.454964613112009
705,0.450150725369003
706,0.44646488013228
707,0.447355459608277
708,0.455143271889063
709,0.470027266689902
710,0.488185753439658
711,0.500871969640767
712,0.497796417216721
713,0.474018874427526
714,0.434371023493637
715,0.390184588771737
716,0.351714393970288
717,0.323556605302483
718,0.305263452218582
719,0.294373218051884
720,0.288500087441272
721,0.285789416879954
722,0.284888093172107
723,0.285033489926406
724,0.285931713674236
725,0.287392688022463
726,0.289117055118841
727,0.290841692906579
728,0.292508910426257
729,0.294131592069698
730,0.295617919131632
731,0.296852206243916
732,0.297894264978341
733,0.298886459022281
734,0.299892277270879
735,0.301017444085043
736,0.302436526809402
737,0.304149820424549
738,0.305872701358061
739,0.307300155757565
740,0.308333570984776
741,0.308940701055971
742,0.308983676288616
743,0.308400514684724
744,0.307466021970706
745,0.306655779002892
746,0.306272034311903
747,0.306351035701508
748,0.306868234368462
749,0.307814195932783
750,0.309080328363466
751,0.310485740816414
752,0.311970342507121
753,0.313609252284932
754,0.315403662887
755,0.317222355986967
756,0.318981773483906
757,0.320711104357334
758,0.32241210241377
759,0.324049493508297
760,0.325717064127812
761,0.32762686274874
762,0.329860365116608
763,0.332287786418733
764,0.334804924766917
765,0.337502954716268
766,0.340564585825985
767,0.344160077561327
768,0.348473626090508
769,0.353563336450263
770,0.359019649324851
771,0.363954891893107
772,0.367577879693629
773,0.369780604722606
774,0.371086994285804
775,0.372142829454158
776,0.373359654459008
777,0.374872825392884
778,0.376613937267618
779,0.378430478175474
780,0.380234827834564
781,0.381997884650856
782,0.383573160757272
783,0.384674343834464
784,0.385122521878836
785,0.384996253141704
786,0.384447995210671
787,0.383515339246629
788,0.382235413133718
789,0.380784842874648
790,0.379357842552273
791,0.378004339356404
792,0.376680667000609
793,0.375336940376275
794,0.373862405283912
795,0.37211426143393
796,0.37012935416148
797,0.368164935730121
798,0.366413268839464
799,0.36483147416573
800,0.363357810138729
801,0.362122807902305
802,0.361343932761718
803,0.361147686699039
804,0.361510492827285
805,0.362111020343069
806,0.362191924660182
807,0.360937899116094
808,0.358266078823929
809,0.355027821491129
810,0.352227346155304
811,0.350213703434285
812,0.348758047304929
813,0.347616663330287
814,0.346714654588391
815,0.34598342376341
816,0.345342361294888
817,0.344805343735293
818,0.344419477238596
819,0.344188166405147
820,0.344193568554646
821,0.344647054724387
822,0.34568423089416
823,0.3472878426664
824,0.349567859742034
825,0.35281226978803
826,0.356850373221988
827,0.360429672410591
828,0.361633278630655
829,0.359139551688379
830,0.353177773225382
831,0.345451025730356
832,0.338177673823157
833,0.332915705356714
834,0.329950262551138
835,0.3286924340994
836,0.328567266178212
837,0.329359879349496
838,0.330904438447502
839,0.332930871580523
840,0.335389571528573
841,0.338536183294946
842,0.342568577040994
843,0.3475402219958
844,0.353683477274563
845,0.361090458498024
846,0.368549805518593
847,0.37338571327567
848,0.373540602562669
849,0.369984588916725
850,0.366328388784895
851,0.365824595860859
852,0.369208257547743
853,0.375215768250763
854,0.382407635275386
855,0.390185228370258
856,0.398573168605962
857,0.407741741422188
858,0.417840332917461
859,0.42896046001957
860,0.441190541155692
861,0.454696426889179
862,0.469663483358102
863,0.486134011599873
864,0.504002096108262
865,0.523277383014347
866,0.544166011838479
867,0.566761552127064
868,0.590578082930096
869,0.614189272872968
870,0.635005505259936
871,0.649574372092423
872,0.654887146866529
873,0.649774975863157
874,0.635101888713118
875,0.612663884585125
876,0.584423789151508
877,0.552557305433933
878,0.519313281165965
879,0.486766627030681
880,0.456553662220656
881,0.429314278902377
882,0.404033353708378
883,0.378470437668952
884,0.35112850933975
885,0.322953779303686
886,0.297003440481297
887,0.276470583802071
888,0.263013588711329
889,0.256311132051488
890,0.254673918491838
891,0.256083287387659
892,0.258968554613416
893,0.262508549102736
894,0.266356341001352
895,0.270240875602879
896,0.273866033811185
897,0.277032358683002
898,0.279700384884495
899,0.281892665922503
900,0.283647164864976
901,0.285062510396046
902,0.286291304232911
903,0.287489348104143
904,0.288832215967886
905,0.290537694358281
906,0.292766055138805
907,0.295503776591099
908,0.298634290883788
909,0.302088272857054
910,0.30584103685495
911,0.309823343929305
912,0.313944654067314
913,0.318186775257791
914,0.322538830166621
915,0.326848278113888
916,0.330864365525455
917,0.334443104898663
918,0.33759465658878
919,0.340340911507518
920,0.342667301059254
921,0.344603713299152
922,0.346225972213857
923,0.347563929810624
924,0.348631526409744
925,0.34955282717111
926,0.350539490808202
927,0.35175550011759
928,0.353297755299947
929,0.355261479409925
930,0.357698138889625
931,0.360574985699401
932,0.363897085747836
933,0.367755026589172
934,0.37199775786092
935,0.375884182003525
936,0.378382118670315
937,0.378994299613162
938,0.378170942053665
939,0.376876366773246
940,0.375898716743125
941,0.375544247463083
942,0.375728332368325
943,0.376196647936392
944,0.376771933132656
945,0.377504205350599
946,0.378550598818259
947,0.37992621536127
948,0.381477199573505
949,0.383104918212402
950,0.384860191491584
951,0.386787232865517
952,0.388822946397105
953,0.390899031218383
954,0.393030653465894
955,0.395245680246133
956,0.39754329117953
957,0.399960495135112
958,0.402557459628303
959,0.405300031818984
960,0.408066397156463
961,0.410804474150651
962,0.413573441662792
963,0.416418746298983
964,0.419362904814868
965,0.422533681891688
966,0.426096239306445
967,0.429934581478
968,0.433525705016433
969,0.436271146284362
970,0.437946881577233
971,0.438827498457119
972,0.43948792884456
973,0.4404900047716
974,0.442105765300412
975,0.444257794391321
976,0.446738314491291
977,0.449462364221599
978,0.452443054388108
979,0.455623361987038
980,0.458909634719824
981,0.462334829532283
982,0.466013831220178
983,0.46991751446293
984,0.473870434690439
985,0.477769376572717
986,0.481627166535328
987,0.485415467343171
988,0.489075535900019
989,0.492712231188497
990,0.496569872314478
991,0.500780456212444
992,0.505327567744182
993,0.51024480326421
994,0.515600493925024
995,0.521257543731077
996,0.526903651581365
997,0.532440576155006
998,0.538117882854875
999,0.544221154720251
1000,0.550862670949659
1001,0.558102869189469
1002,0.566011635226094
1003,0.574485537223572
1004,0.583252260932486
1005,0.592160318584771
1006,0.601221209407561
1007,0.610310161316209
1008,0.619137268959368
1009,0.627618543641068
1010,0.635941512811434
1011,0.644147704942221
1012,0.651988674541792
1013,0.659333424038546
1014,0.666349507346252
1015,0.673127049142144
1016,0.67953696513059
1017,0.685641772751991
1018,0.691864816813158
1019,0.698576440810721
1020,0.705901255726516
1021,0.714060461330355
1022,0.723477525853091
1023,0.734385751941811
1024,0.746780028529916
1025,0.760873996279415
1026,0.776753277476816
1027,0.792867686061775
1028,0.805355883200973
1029,0.810072087963441
1030,0.805848762669644
1031,0.79582817340892
1032,0.785695719720761
1033,0.780474228157937
1034,0.782172050466712
1035,0.789578940081575
1036,0.799904883125707
1037,0.810635663970644
1038,0.820337708120143
1039,0.828448458688487
1040,0.835108339065739
1041,0.841059891572648
1042,0.847047399924214
1043,0.853151383983349
1044,0.85905552499835
1045,0.86480261621484
1046,0.870727284185033
1047,0.876767827430196
1048,0.882509907575386
1049,0.88793985366136
1050,0.893469901276552
1051,0.899190874765839
1052,0.904813920693706
1053,0.910387247342654
1054,0.916316184878836
1055,0.922595584468339
1056,0.928740975613053
1057,0.934522314094811
1058,0.940070702177492
1059,0.945243701133534
1060,0.949645193846435
1061,0.953366198368056
1062,0.95699619987678
1063,0.960787531356003
1064,0.964492139147327
1065,0.968010230918439
1066,0.971452636253068
1067,0.974598937445607
1068,0.97712423113548
1069,0.979414060673117
1070,0.98230275901612
1071,0.985933623111936
1072,0.989660167492815
1073,0.993060068477521
1074,0.996176869330601
1075,0.998726874919183
1076,1
1077,0.999745118471767
1078,0.998245395380005
1079,0.995472669128321
1080,0.991100004187276
1081,0.985400642846417
1082,0.979266993920488
1083,0.973189015277388
1084,0.967095886847379
1085,0.961172324234039
1086,0.955907147133374
1087,0.951303914436931
1088,0.946893435277215
1089,0.942593540696844
1090,0.93875720340027
1091,0.935359385182898
1092,0.931950209979576
1093,0.928477649078236
1094,0.925325484514916
1095,0.922466845717698
1096,0.919377099130067
1097,0.915875768123153
1098,0.912272103425783
1099,0.90860912838182
1100,0.904533599613538
1101,0.899971734102829
1102,0.895148439259621
1103,0.889955995342671
1104,0.883932035656411
1105,0.877071817228754
1106,0.869808232513497
1107,0.862164272725757
1108,0.853708650102597
1109,0.844327458471213
1110,0.834364518186775
1111,0.823931489253901
1112,0.812865298668963
1113,0.801402272162476
1114,0.790159683344616
1115,0.779430585341335
1116,0.769103315372688
1117,0.75925720478417
1118,0.750206623050922
1119,0.741965379317858
1120,0.734235313509179
1121,0.726925346932003
1122,0.720091384247008
1123,0.713379901072017
1124,0.706159421944509
1125,0.698260061471062
1126,0.690031457093883
1127,0.68166841781041
1128,0.67310900215593
1129,0.664699170754818
1130,0.657263602457671
1131,0.651231157307126
1132,0.646240136339802
1133,0.641761567928179
1134,0.637613433904947
1135,0.633735395123297
1136,0.629971428265627
1137,0.626278055757635
1138,0.622788823125466
1139,0.619539563124128
1140,0.616410860546717
1141,0.613436763996743
1142,0.610851262055305
1143,0.60872976241292
1144,0.606928056561516
1145,0.605433150760057
1146,0.60443330541562
1147,0.603949834886651
1148,0.603717970093832
1149,0.603546170792204
1150,0.603453603711086
1151,0.603337740301415
1152,0.602820428724717
1153,0.601571290124884
1154,0.599486031474538
1155,0.596498839820884
1156,0.592565353491878
1157,0.587908763493749
1158,0.583001009484279
1159,0.578168738907987
1160,0.573463451546147
1161,0.568940873694743
1162,0.564774187323219
1163,0.561040223220176
1164,0.55766112206323
1165,0.554616035586979
1166,0.551954388047409
1167,0.549561964480395
1168,0.547163231379798
1169,0.54464050672015
1170,0.542126597646397
1171,0.539740318802979
1172,0.537489046713805
1173,0.535455643091595
1174,0.533823160501757
1175,0.532629088259073
1176,0.531688109061
1177,0.530806604211391
1178,0.529862243836431
1179,0.528690279627844
1180,0.527188715749777
1181,0.525586433507347
1182,0.524321645918476
1183,0.523571568922934
1184,0.523178029012861
1185,0.52306881856143
1186,0.523424647995866
1187,0.524402901867289
1188,0.525972761635107
1189,0.528135555063682
1190,0.531079405206091
1191,0.534946208307763
1192,0.53976288359812
1193,0.545674833492727
1194,0.552975685332491
1195,0.561818080642553
1196,0.572062632328298
1197,0.583583903169492
1198,0.59638398060403
1199,0.610155380479645
1200,0.623886402865139
1201,0.636086438019452
1202,0.645231944104151
1203,0.65014909113463
1204,0.650632217389438
1205,0.647688004145745
1206,0.642787620339802
1207,0.636607590278129
1208,0.62881658416459
1209,0.619044485251337
1210,0.607314989844458
1211,0.593737991658918
1212,0.578392032834432
1213,0.561676096045909
1214,0.544353299304596
1215,0.527058490897892
1216,0.510165174692636
1217,0.494110919310363
1218,0.479464270770338
1219,0.466572260090682
1220,0.455426508432029
1221,0.445863601172958
1222,0.437669516220058
1223,0.430492633304043
1224,0.423870924224745
1225,0.417548935367071
1226,0.411595700125043
1227,0.406135554435968
1228,0.40114012609281
1229,0.39650821897322
1230,0.392192525951976
1231,0.388123344918967
1232,0.384159197014928
1233,0.380251369934238
1234,0.376515148648068
1235,0.37304907907136
1236,0.369801217731692
1237,0.366719361559184
1238,0.36391665253244
1239,0.361527597617708
1240,0.35947614464564
1241,0.357512482586672
1242,0.355438397535161
1243,0.353208015726832
1244,0.350874045130882
1245,0.348555158941411
1246,0.346393061717157
1247,0.344417123549937
1248,0.342466654552219
1249,0.340322845902544
1250,0.337884148626399
1251,0.335163927501848
1252,0.332209228690353
1253,0.32909732237514
1254,0.325954854644546
1255,0.322881137348221
1256,0.319863843447351
1257,0.316825236893521
1258,0.313712968681513
1259,0.310484210713459
1260,0.307086792709021
1261,0.303591577414979
1262,0.300279154458992
1263,0.297459792161609
1264,0.295236373097427
1265,0.29353145083222
1266,0.29230893071117
1267,0.291604035563147
1268,0.29136817408541
1269,0.291436558716124
1270,0.291664328161635
1271,0.291981406529252
1272,0.292313992650237
1273,0.292606493318572
1274,0.292928449118383
1275,0.293422918397079
1276,0.294143579870485
1277,0.295049121179568
1278,0.296146395253244
1279,0.297473086216419
1280,0.298922999932315
1281,0.300270076283918
1282,0.301413263988286
1283,0.302433988615092
1284,0.30340445730853
1285,0.304318105036267
1286,0.305229676793128
1287,0.306260366063585
1288,0.307419289117395
1289,0.308612346537134
1290,0.309841952702513
1291,0.311209868754662
1292,0.312719499576195
1293,0.314272977862782
1294,0.315869993606073
1295,0.317593674138022
1296,0.319392874471651
1297,0.321102543646701
1298,0.322710958053413
1299,0.324382479228254
1300,0.326197405170723
1301,0.328082314625196
1302,0.330020863844471
1303,0.332098385528579
1304,0.334312822145049
1305,0.336569988549345
1306,0.338881811998711
1307,0.341348315465944
1308,0.343922695423843
1309,0.346446749635573
