"Wave Length","Absorbance"
450,0.76567163969939
451,0.771527105007773
452,0.776146203240575
453,0.779694227451881
454,0.783084961365812
455,0.786142004273749
456,0.787592953169759
457,0.787165153041735
458,0.787760699087946
459,0.789092096241596
460,0.789739105671581
461,0.789890106953852
462,0.790266794937659
463,0.789979307155388
464,0.788180415999644
465,0.785781019720551
466,0.783626028130968
467,0.780532578794673
468,0.77537178478154
469,0.769259497112776
470,0.763099539783088
471,0.754913214577316
472,0.742543909841779
473,0.728136934007831
474,0.715634547644967
475,0.705000398659959
476,0.693576114321556
477,0.680571294048059
478,0.66727961455774
479,0.654512288672385
480,0.641866261829705
481,0.629081255686399
482,0.616262454157397
483,0.603034594870526
484,0.589015891403283
485,0.574927690375719
486,0.561783671065885
487,0.549407151362499
488,0.537056543608497
489,0.524819305690647
490,0.513241372625557
491,0.50213362042578
492,0.490910247548741
493,0.479918337034424
494,0.470255631067081
495,0.462323304924533
496,0.455595150845823
497,0.449664426843881
498,0.444584923936486
499,0.440224471843454
500,0.436064317212263
501,0.431806540921662
502,0.42767238398179
503,0.423960948277693
504,0.420785644077252
505,0.418342789320987
506,0.416830525809293
507,0.415992498995786
508,0.415271185895543
509,0.41449260443772
510,0.413817122335773
511,0.413062990979677
512,0.41178652551584
513,0.409925129831177
514,0.407684431103801
515,0.404878484389092
516,0.401107551549636
517,0.396695425543701
518,0.392728188565536
519,0.389847134178122
520,0.387740813414287
521,0.386060978508747
522,0.384963921743095
523,0.38457232586835
524,0.384578083294144
525,0.38464098507388
526,0.384819117429138
527,0.385278594807204
528,0.385891493539497
529,0.386466897628119
530,0.38700228800165
531,0.387547524641463
532,0.388165593258101
533,0.38902236585638
534,0.390186041492209
535,0.391318766405526
536,0.391926070099604
537,0.391960303008689
538,0.391813586865497
539,0.391719971805121
540,0.391595753793467
541,0.391470489366581
542,0.391600602531757
543,0.392057378288269
544,0.392593652800912
545,0.393056669012562
546,0.393599638144101
547,0.394352363928117
548,0.395200561547948
549,0.396032874723717
550,0.396907960939154
551,0.397891956045421
552,0.399020733896095
553,0.400443981091984
554,0.402334349025738
555,0.404627955831077
556,0.407089929503905
557,0.409600266471165
558,0.412052717247793
559,0.414072862387017
560,0.4153102651811
561,0.41596893694228
562,0.416567344112966
563,0.417264229769562
564,0.417895666558613
565,0.418547845082526
566,0.419581341477692
567,0.421085882339434
568,0.422737644679834
569,0.424212348064706
570,0.425360875920383
571,0.426066246303946
572,0.426397738885445
573,0.426753886425052
574,0.427392761028841
575,0.428014022017093
576,0.428309267041504
577,0.428729142548959
578,0.429958335039408
579,0.431802394070724
580,0.433327289673406
581,0.434044101412587
582,0.434357145104607
583,0.43481344231115
584,0.4355890875738
585,0.436803237682782
586,0.438619635293633
587,0.44083819371948
588,0.442961306013226
589,0.444827100865003
590,0.446708581169571
591,0.4487194641839
592,0.450635867223459
593,0.452407276429337
594,0.454305556850275
595,0.456453888018028
596,0.45871090984309
597,0.461004154016883
598,0.463219529931521
599,0.464766870657797
600,0.464899257237401
601,0.463636779931345
602,0.461758393290067
603,0.459812674493452
604,0.457743881653693
605,0.45540436151331
606,0.452765046701453
607,0.449614566028336
608,0.445693850310391
609,0.441210122518053
610,0.436680581071452
611,0.432305685345898
612,0.42800244358306
613,0.423948688479235
614,0.420565443283891
615,0.418116918201933
616,0.416983019465038
617,0.41812494476634
618,0.422250213073992
619,0.428146712706424
620,0.432808975989509
621,0.434019722895135
622,0.432341821210726
623,0.429909955667689
624,0.427458016293664
625,0.423173712691439
626,0.414654947735356
627,0.401701091147042
628,0.386861183829678
629,0.373319701942617
630,0.362756257392317
631,0.355139123790002
632,0.349740242653827
633,0.345973509167022
634,0.343510938517953
635,0.34206931751196
636,0.341402555092261
637,0.34143830491852
638,0.342244650556601
639,0.343844698786422
640,0.346296069029732
641,0.349971681698548
642,0.355248556889282
643,0.361353219776778
644,0.365720353512213
645,0.365375174869607
646,0.359386650780423
647,0.34987185799853
648,0.340430222159578
649,0.333448280207262
650,0.328947961055351
651,0.325763054630736
652,0.323159835824994
653,0.321124645367882
654,0.319705681981617
655,0.318708508727687
656,0.31791385375681
657,0.317196912522184
658,0.316450168211774
659,0.315657335312944
660,0.315030532529157
661,0.314836466785164
662,0.315109378567167
663,0.315732188908573
664,0.316627122719015
665,0.31768467611037
666,0.318522514471971
667,0.318732760110222
668,0.318636924977444
669,0.31911178919299
670,0.320567173151891
671,0.322576360060573
672,0.324596180572879
673,0.32656239445741
674,0.328715110934804
675,0.331161201150952
676,0.333624643859644
677,0.335670646866432
678,0.337003451053288
679,0.337526544017809
680,0.337286698281382
681,0.336493411073016
682,0.335519541773013
683,0.334742568816815
684,0.334418873202684
685,0.334730375428835
686,0.33581200826427
687,0.33769934806601
688,0.340368179929551
689,0.343842767809952
690,0.348164134607005
691,0.353286886202717
692,0.359131331813463
693,0.3657277099354
694,0.373255233275191
695,0.381978213298422
696,0.392204152541039
697,0.404202143247742
698,0.417929013820492
699,0.432710041206238
700,0.447182261244392
701,0.459546733553708
702,0.468005205967884
703,0.471391389883712
704,0.469999621697486
705,0.466130453478798
706,0.463563313526245
707,0.46614253174837
708,0.476444892759762
709,0.494469384260331
710,0.51577869264396
711,0.530709481338994
712,0.527864360633612
713,0.501704781393574
714,0.457637108160176
715,0.408364517541436
716,0.365365371018725
717,0.333804606050255
718,0.313215539991284
719,0.300817673118703
720,0.29394556779305
721,0.29069435961591
722,0.289752124784058
723,0.290216077830308
724,0.291480885486376
725,0.293167733756929
726,0.295090953553035
727,0.297155076957813
728,0.299197840658536
729,0.300985821136337
730,0.302395907426607
731,0.303495638652692
732,0.304420388078011
733,0.305295369097449
734,0.306299152399074
735,0.307627378038869
736,0.309292216228164
737,0.31105908302318
738,0.312655022430693
739,0.313951486500897
740,0.314899862593799
741,0.315417143819334
742,0.315432658562595
743,0.314983020820859
744,0.314210659696724
745,0.313338807389653
746,0.312667449028995
747,0.312477759278513
748,0.312854480409023
749,0.313653065045901
750,0.314686514569292
751,0.31589381424222
752,0.317303105433425
753,0.318920908177856
754,0.32072281990545
755,0.322677435744485
756,0.324700967741881
757,0.326635370119121
758,0.328351020448044
759,0.329867160146249
760,0.331343822212748
761,0.332980949204079
762,0.334935898262831
763,0.337275184703747
764,0.339951239636288
765,0.342863972132658
766,0.346014051875411
767,0.349591980602179
768,0.353856190641615
769,0.358855019299742
770,0.364212106482419
771,0.369185893717947
772,0.373041333712518
773,0.375520512757623
774,0.377014480723675
775,0.378253834374217
776,0.379805378104451
777,0.381806553580833
778,0.384064992070774
779,0.386315547411153
780,0.388407811071237
781,0.39032938106201
782,0.392086536017202
783,0.39356884227303
784,0.39455972963174
785,0.394904830858327
786,0.394624527237261
787,0.39384349213534
788,0.392689145549274
789,0.391299176434631
790,0.389849486607009
791,0.388474870432777
792,0.387169592632128
793,0.385820362739743
794,0.384318324947785
795,0.382616570632054
796,0.380730505856201
797,0.378748466798788
798,0.376821069390533
799,0.375073466019508
800,0.373522894128841
801,0.372133141968319
802,0.370977522934683
803,0.370294200853453
804,0.37026743447622
805,0.370673243752921
806,0.370792153707851
807,0.369838094493767
808,0.367599674235348
809,0.364640087332683
810,0.36182505966258
811,0.359686198457956
812,0.358233684585457
813,0.357215238663838
814,0.356387170225996
815,0.355603711257345
816,0.354842237740343
817,0.35421291517233
818,0.353858919773904
819,0.353823815949731
820,0.354060175783493
821,0.354549905038689
822,0.355382656354212
823,0.356781297273757
824,0.359119145297908
825,0.362713120196475
826,0.367242890224293
827,0.371295194772148
828,0.372816072179358
829,0.370395815541941
830,0.364312488349484
831,0.356420381534725
832,0.349036582430198
833,0.343740514700959
834,0.340853020625479
835,0.339805953492551
836,0.339926019761649
837,0.340880878838301
838,0.342559183957618
839,0.344833163242866
840,0.347609224729127
841,0.350946383589158
842,0.355032186469064
843,0.36019968085055
844,0.366949648031673
845,0.375362236203173
846,0.38395410898426
847,0.389642668916655
848,0.389995166637013
849,0.385971818807861
850,0.381702193916332
851,0.381068697338066
852,0.384962138908191
853,0.391806579193941
854,0.399906481971532
855,0.408708241145494
856,0.418277403648432
857,0.428635926563924
858,0.439838811861977
859,0.452091780515177
860,0.46559098688431
861,0.480465387841283
862,0.496894982112566
863,0.515024090357537
864,0.534764701113546
865,0.55602489321845
866,0.579013062182337
867,0.603922176774279
868,0.630132343414221
869,0.655793426938628
870,0.677951615371925
871,0.69302050952151
872,0.697885425437747
873,0.691268633739159
874,0.67420128773173
875,0.648900257873234
876,0.617601878178925
877,0.582498481375558
878,0.545917085939242
879,0.510217619487844
880,0.477250439991116
881,0.447614372057383
882,0.42014087838171
883,0.392398009205624
884,0.362567815998093
885,0.331313924823947
886,0.301847412473045
887,0.277983402107094
888,0.261976635951745
889,0.253680455949844
890,0.251256463189211
891,0.25244604597032
892,0.255381703185738
893,0.258957359677112
894,0.262774570216284
895,0.266736335765572
896,0.270615051644707
897,0.274015342774566
898,0.276721847401797
899,0.278824999389288
900,0.280498918485488
901,0.281859831385857
902,0.283077347272381
903,0.284407435228278
904,0.286025777206609
905,0.287969498163477
906,0.290283327416381
907,0.293059950118148
908,0.296288011422259
909,0.29982491466514
910,0.303585624685925
911,0.307635063599162
912,0.31202331990664
913,0.316658790482647
914,0.321374485599923
915,0.325991033662131
916,0.330299821815083
917,0.334127941437953
918,0.337448210979542
919,0.340318160802041
920,0.342731713344257
921,0.344639579763598
922,0.346099887963024
923,0.34726696184304
924,0.348256450344475
925,0.349154621483241
926,0.350127346935001
927,0.351378799966261
928,0.353002819520569
929,0.354986687306309
930,0.357342518159497
931,0.360145636034875
932,0.363467153965365
933,0.367327635025843
934,0.37156812703823
935,0.375594261987025
936,0.378416250711238
937,0.379305934129096
938,0.378476866034126
939,0.376952343730732
940,0.375757281436966
941,0.375323433156813
942,0.375556133742723
943,0.376172335480406
944,0.376912747080408
945,0.377657620120355
946,0.378489513207605
947,0.379587900763961
948,0.381020278549757
949,0.382698765879082
950,0.384512298426044
951,0.386403161155994
952,0.388336803373423
953,0.390310507097698
954,0.392389688876812
955,0.394628208915926
956,0.396982171248677
957,0.399391106836633
958,0.401883718689402
959,0.404496263444313
960,0.407149253387464
961,0.409742496710661
962,0.412312309110845
963,0.414967378075111
964,0.417757369608638
965,0.420747787907351
966,0.424094845493207
967,0.427791201276759
968,0.431367219739391
969,0.434109002877776
970,0.435673718553009
971,0.436376041466516
972,0.436885298234819
973,0.437752891027238
974,0.439190171047206
975,0.44112561728723
976,0.443383547046333
977,0.44586718256781
978,0.448595409428245
979,0.451579069364841
980,0.454751297498288
981,0.458067228290713
982,0.461569427205492
983,0.465246128006441
984,0.468936166731086
985,0.472489267422593
986,0.475929076462849
987,0.479366103045299
988,0.482853046134235
989,0.486441627270125
990,0.490264013644814
991,0.494432965703627
992,0.498973438070211
993,0.503923981090166
994,0.509345832966815
995,0.515125615767954
996,0.520949186123137
997,0.526661365708073
998,0.532477488050211
999,0.538700212757528
1000,0.545437038067358
1001,0.552729568442366
1002,0.560723723119204
1003,0.569447864488336
1004,0.578626012810394
1005,0.587957279384685
1006,0.59738451868322
1007,0.606867450063239
1008,0.616139762297992
1009,0.624980764462269
1010,0.63348749749712
1011,0.641797976961165
1012,0.649776939698431
1013,0.657274221802231
1014,0.664426877669551
1015,0.671396255480522
1016,0.678114386253156
1017,0.684619193221108
1018,0.691337647171423
1019,0.698684463706304
1020,0.706690312012085
1021,0.715356631809654
1022,0.725043703333542
1023,0.736124057982958
1024,0.748619783463485
1025,0.762589434153817
1026,0.778219745017744
1027,0.794534430974616
1028,0.808159839473478
1029,0.814656691051506
1030,0.811929599288866
1031,0.802402328784179
1032,0.79174710440668
1033,0.785462898013249
1034,0.786067397180497
1035,0.79261392310437
1036,0.802319854269258
1037,0.812607462869571
1038,0.822069940314929
1039,0.830171636567236
1040,0.836867324236775
1041,0.842594958718551
1042,0.848025993774041
1043,0.853469083257814
1044,0.858792801740115
1045,0.863979058939288
1046,0.869290198293911
1047,0.874791786688136
1048,0.88021515590909
1049,0.885480039968811
1050,0.890839751280511
1051,0.896350598995602
1052,0.901768507010888
1053,0.907142673438659
1054,0.912880236540182
1055,0.919029661435104
1056,0.925137244780487
1057,0.930988831344078
1058,0.936847490522333
1059,0.94273994938299
1060,0.948166974830846
1061,0.952781072977663
1062,0.95674755751599
1063,0.960195252565371
1064,0.963004190388302
1065,0.965377276256103
1066,0.967918510173087
1067,0.970881759081483
1068,0.973974070830797
1069,0.977115797701789
1070,0.980654668250624
1071,0.984593462119666
1072,0.988365495892598
1073,0.991663466463668
1074,0.994740047410119
1075,0.997580751348145
1076,0.999511457956509
1077,1
1078,0.999085819911966
1079,0.996782786805086
1080,0.992892256902231
1081,0.987694118036045
1082,0.982076357308374
1083,0.976598517461939
1084,0.971175327097735
1085,0.965859461089281
1086,0.961127280960241
1087,0.957154022023064
1088,0.953557322109134
1089,0.950132415197244
1090,0.947130561876754
1091,0.944573457497851
1092,0.942000415948299
1093,0.939198599747017
1094,0.936482116032872
1095,0.93396865968489
1096,0.931255199573905
1097,0.928101844881307
1098,0.924759070415999
1099,0.921335967574188
1100,0.917518359917016
1101,0.913163276371574
1102,0.908540067688093
1103,0.903697476662899
1104,0.8982283848368
1105,0.89194732666481
1106,0.885136637490988
1107,0.877908485291411
1108,0.869936892514913
1109,0.86103089300069
1110,0.851427728136364
1111,0.841277796263919
1112,0.830494232544989
1113,0.819278991830818
1114,0.808197235107713
1115,0.797556487145255
1116,0.787238723811142
1117,0.777297185754089
1118,0.768142401253939
1119,0.759978368866343
1120,0.75255078381091
1121,0.745617454175998
1122,0.739130726196615
1123,0.732787237139294
1124,0.725962070263359
1125,0.718356682885146
1126,0.710263823210368
1127,0.701998857454139
1128,0.693594040717867
1129,0.685321743608889
1130,0.677946641191075
1131,0.671984937517376
1132,0.667130873589682
1133,0.662756011353298
1134,0.658583239371081
1135,0.654600722062276
1136,0.650754080371592
1137,0.647041231874082
1138,0.643619348220054
1139,0.640559406904382
1140,0.637696669295574
1141,0.634941711234332
1142,0.632494982982589
1143,0.630532222718648
1144,0.628960490688681
1145,0.627678407895315
1146,0.626810056897496
1147,0.626457633839409
1148,0.626454261704877
1149,0.626598064514374
1150,0.626860751024834
1151,0.627143210385134
1152,0.627067640838428
1153,0.626260636849172
1154,0.62459957128437
1155,0.622035462531398
1156,0.618493526664187
1157,0.614131391534736
1158,0.609436273733681
1159,0.604810275771274
1160,0.600294188883526
1161,0.595852433772609
1162,0.591654341580216
1163,0.587887258696144
1164,0.584537646260656
1165,0.581558842741495
1166,0.579006579070877
1167,0.576806715570811
1168,0.574611352992357
1169,0.57213943159042
1170,0.569494928772843
1171,0.566959048878552
1172,0.564678735525366
1173,0.562724785396483
1174,0.561236554665347
1175,0.560255141451897
1176,0.559545139711889
1177,0.558795868079881
1178,0.557871267581029
1179,0.556736194963932
1180,0.555371718436339
1181,0.553951227099944
1182,0.552882557449725
1183,0.552417051032971
1184,0.552404141872746
1185,0.552636640054578
1186,0.553199950815436
1187,0.554320544201694
1188,0.55606386014903
1189,0.558420069360944
1190,0.561560248998299
1191,0.565705189151065
1192,0.570945300429717
1193,0.577366722059544
1194,0.585178301112386
1195,0.594544542467439
1196,0.605369909038093
1197,0.617538340266533
1198,0.631085978640005
1199,0.645773854356798
1200,0.66055894451846
1201,0.673776186873165
1202,0.683752402921378
1203,0.68928280924799
1204,0.690133792934557
1205,0.687229909484529
1206,0.682070603966309
1207,0.675521367350184
1208,0.667371064381369
1209,0.657166743558915
1210,0.644814391170192
1211,0.630471970084828
1212,0.614333568844395
1213,0.596810316723835
1214,0.57863690001336
1215,0.560503394500657
1216,0.542855863513428
1217,0.52609121466746
1218,0.510689712122426
1219,0.496982111280142
1220,0.484988872322973
1221,0.474557451719515
1222,0.465524040092042
1223,0.457670356279138
1224,0.450621050596971
1225,0.444060505936411
1226,0.437948608459077
1227,0.432381563380062
1228,0.427338905272452
1229,0.422667881750347
1230,0.418266594077234
1231,0.414098501593057
1232,0.410091779841415
1233,0.406211519590325
1234,0.402559604128617
1235,0.399254739732136
1236,0.396239015696665
1237,0.393358846684184
1238,0.390604767004099
1239,0.388079939239793
1240,0.385781115104899
1241,0.38359477281996
1242,0.381487878717327
1243,0.379517174304419
1244,0.377646123191023
1245,0.375740519926849
1246,0.373755711239348
1247,0.371755295393555
1248,0.369739586871867
1249,0.367619270111038
1250,0.365354809042552
1251,0.362967546175662
1252,0.360422765716894
1253,0.35767028967905
1254,0.354797309596025
1255,0.351966436105781
1256,0.349193128698491
1257,0.346350020430854
1258,0.34336695069479
1259,0.340262585492134
1260,0.33701009801003
1261,0.333616425561253
1262,0.330333153230287
1263,0.327559320424973
1264,0.325474929398087
1265,0.323978657176375
1266,0.322989533118595
1267,0.322537995333563
1268,0.3225544628191
1269,0.322812620674083
1270,0.323160984310185
1271,0.323615363773273
1272,0.324155924507994
1273,0.324692842038297
1274,0.325275949805406
1275,0.326086013882283
1276,0.327178727477693
1277,0.328447553257357
1278,0.329863408385179
1279,0.331493414516196
1280,0.333238527088174
1281,0.334845097063955
1282,0.336229522658503
1283,0.3375394882387
1284,0.338838593892383
1285,0.340029704668251
1286,0.341129419821797
1287,0.342329418163242
1288,0.343709605662776
1289,0.345157935658871
1290,0.346642825934774
1291,0.348278160149935
1292,0.350057274972848
1293,0.351816902784594
1294,0.353528215992432
1295,0.355332298499923
1296,0.35724684139507
1297,0.359121279840033
1298,0.360939605987772
1299,0.362865368057515
1300,0.364931652439678
1301,0.367010814536594
1302,0.369122883450079
1303,0.371451831095843
1304,0.374001232140636
1305,0.37655421687532
1306,0.379037056709618
1307,0.381603687120358
1308,0.384316934339391
