"Wave Length","Absorbance"
450,0.85272756043377
451,0.862147256640648
452,0.870889031634887
453,0.876349373689968
454,0.880833537487226
455,0.886272700901015
456,0.89170076903173
457,0.895250257617102
458,0.895224021837016
459,0.870999776805065
460,0.871664613221507
461,0.872132550251933
462,0.873704730620128
463,0.875522234579386
464,0.875548268672567
465,0.873881523982518
466,0.871476162924319
467,0.867749878579713
468,0.862004385440573
469,0.855733821047092
470,0.84997395366965
471,0.842229144887882
472,0.829597672971892
473,0.813930214193497
474,0.799541648147357
475,0.786494772792217
476,0.772457780692956
477,0.757612096115353
478,0.743806238150943
479,0.730946633895896
480,0.717394568882956
481,0.70263779359655
482,0.687253997563443
483,0.671275879737096
484,0.654839341582573
485,0.639129049373659
486,0.624909418215049
487,0.611298678153408
488,0.597263965738406
489,0.583154462444248
490,0.569808108462823
491,0.557180880563355
492,0.544924402999761
493,0.533664230278601
494,0.524315356018209
495,0.516413178606171
496,0.508975166851707
497,0.502030934545729
498,0.496300745917177
499,0.491682877627723
500,0.487188534433264
501,0.482447186133516
502,0.477958001768713
503,0.473928585161838
504,0.470130962156292
505,0.466516311832372
506,0.463389982604609
507,0.460921646035499
508,0.458984069576869
509,0.457649184361569
510,0.456867579201203
511,0.456049858592539
512,0.45460515179588
513,0.452541941582255
514,0.450179210015944
515,0.447148874569684
516,0.44275376015449
517,0.437216071457218
518,0.431829689696373
519,0.427616446838949
520,0.424845010462495
521,0.423726002279938
522,0.42412236792454
523,0.424905169699429
524,0.424805353318181
525,0.423926423876974
526,0.423510040823621
527,0.424042535029694
528,0.424770589776957
529,0.425211325723961
530,0.425600022279699
531,0.426149193267796
532,0.426705467543656
533,0.427214529250595
534,0.427966739077835
535,0.428916199319118
536,0.429453043259621
537,0.429230012753311
538,0.428653867096139
539,0.42801807561236
540,0.427225876081379
541,0.426307641398999
542,0.425630508905098
543,0.425387992695999
544,0.425470333223589
545,0.425784231792954
546,0.426276259309425
547,0.426732419762735
548,0.427067470703868
549,0.427617283073493
550,0.42868398163653
551,0.43013079283587
552,0.431847888169684
553,0.434159604196295
554,0.437169511010062
555,0.440212945990769
556,0.442596303729752
557,0.444578933159484
558,0.446717880305396
559,0.448705904174324
560,0.449796518248412
561,0.450039432637909
562,0.450096322102305
563,0.450157958014305
564,0.450160567650734
565,0.450604107406382
566,0.452100052362274
567,0.45434531259243
568,0.45654560692292
569,0.458484400361271
570,0.460362241970907
571,0.46183927629699
572,0.462422081229679
573,0.462427398059695
574,0.462462643216171
575,0.462499726810392
576,0.462266068152236
577,0.462293903828296
578,0.463300166287143
579,0.464906534395683
580,0.466067989267821
581,0.46653165647143
582,0.466885524535239
583,0.467460705392284
584,0.468218646361104
585,0.469356672556903
586,0.471175735324513
587,0.473404279736456
588,0.475583475334254
589,0.47783001143981
590,0.480540351081016
591,0.48337461232868
592,0.485513569582853
593,0.486908037725439
594,0.48828461413656
595,0.489970325426324
596,0.491693214735221
597,0.493368831626792
598,0.495053765581516
599,0.496293032635767
600,0.49634634667644
601,0.495229198314418
602,0.493657334789553
603,0.491940029463222
604,0.489810688195014
605,0.487116043659507
606,0.483974480696429
607,0.480191663253833
608,0.475395503555877
609,0.469854781095988
610,0.464358456706309
611,0.459196108878534
612,0.454111109937765
613,0.449147430197269
614,0.444913683742098
615,0.441976680937142
616,0.440756940501463
617,0.441994444070155
618,0.446144120438274
619,0.451861640940753
620,0.456168409547365
621,0.457039109478316
622,0.455272793066897
623,0.453096822685277
624,0.451111930460292
625,0.44722470920457
626,0.438675584439172
627,0.424998623339031
628,0.408781272929495
629,0.393544068333739
630,0.381380728422434
631,0.372484869081411
632,0.366131803399414
633,0.361663342396363
634,0.358735557742335
635,0.357073023718559
636,0.356395887408002
637,0.356587666031748
638,0.357658067595263
639,0.359542059361437
640,0.362263135755987
641,0.366282577374682
642,0.372092679147346
643,0.378857456655015
644,0.383697634881532
645,0.383291642320462
646,0.376637565646281
647,0.366210929440497
648,0.356123955417623
649,0.348955492853957
650,0.344475003737347
651,0.341177053557422
652,0.338320507108491
653,0.336122986231449
654,0.334705284715184
655,0.333675110107708
656,0.33265661489385
657,0.331653404968129
658,0.330778718546411
659,0.330058415915021
660,0.329581160471895
661,0.329493933048979
662,0.329735549818355
663,0.330038976090263
664,0.330096246683213
665,0.329548543887628
666,0.32813157888711
667,0.326300041596433
668,0.325850276591149
669,0.327957756464434
670,0.331690567168521
671,0.335572451383754
672,0.338717424200074
673,0.341126951219304
674,0.343351036668884
675,0.34580012880835
676,0.348365305079853
677,0.350525579260873
678,0.351746292042816
679,0.351806409533817
680,0.350883854052142
681,0.349419833301681
682,0.347883678580195
683,0.346637001640294
684,0.345916060984996
685,0.345936682880037
686,0.34694304311869
687,0.349077320512211
688,0.352267822266422
689,0.356267100999428
690,0.360832145004366
691,0.365918307230265
692,0.371733217439456
693,0.378582694998551
694,0.386621252429854
695,0.395827398252704
696,0.406286290813707
697,0.418301976148695
698,0.431997609883102
699,0.446773677641462
700,0.461198505608767
701,0.473339350642403
702,0.481239543748161
703,0.483598319672029
704,0.480708469021076
705,0.475008231165442
706,0.470364160263986
707,0.470486454956096
708,0.47781117072815
709,0.492624550910264
710,0.511353288259154
711,0.525392855601592
712,0.523965189757693
713,0.501125334588667
714,0.461031545085985
715,0.41530964623876
716,0.375121504605141
717,0.345737949769104
718,0.326793133014966
719,0.315573405712219
720,0.309500003242302
721,0.306731514194709
722,0.305978002094878
723,0.306397988364147
724,0.307505694580847
725,0.309031989553222
726,0.3108340824953
727,0.312818008258407
728,0.314818005935102
729,0.316576196272911
730,0.317933484964626
731,0.318979746817915
732,0.319937270963106
733,0.320946231260768
734,0.322046404800688
735,0.323280338087748
736,0.324678086371585
737,0.326168119419645
738,0.327593844077072
739,0.328810131829171
740,0.329695126651218
741,0.33010966373913
742,0.329941965064279
743,0.329206058928012
744,0.328069853393292
745,0.326830011580608
746,0.32588120397378
747,0.325608056052406
748,0.326169699250322
749,0.327366981331805
750,0.328792427921705
751,0.330157961482359
752,0.331479751887815
753,0.332965710249237
754,0.334764464149313
755,0.336812234476867
756,0.338864297257328
757,0.340664157099448
758,0.342133423265942
759,0.343457815745935
760,0.344972310105429
761,0.346937670456953
762,0.349409465147591
763,0.352271371804481
764,0.35534590561071
765,0.358509219423834
766,0.361823452364051
767,0.365612303420928
768,0.370302144161077
769,0.376016143377152
770,0.382227368123247
771,0.387868527003829
772,0.391920860845242
773,0.39406076494379
774,0.394832194765596
775,0.395220971983878
776,0.39601645118087
777,0.397439477720055
778,0.399244494369527
779,0.401099698140278
780,0.402861959716
781,0.404524356913463
782,0.40600894036408
783,0.407122806300403
784,0.407714394166005
785,0.407773793206101
786,0.407340445119435
787,0.406407642898209
788,0.405008572651037
789,0.403313225677755
790,0.401549147177405
791,0.399838052869652
792,0.398142678967736
793,0.396345250370158
794,0.394339831640128
795,0.392128119312461
796,0.389884466176473
797,0.387861981492642
798,0.386170409907082
799,0.384699541566712
800,0.38330119785217
801,0.381990771372789
802,0.380973915285022
803,0.380542831768343
804,0.380878582125787
805,0.381708891841597
806,0.382128471762044
807,0.381064975035427
808,0.378211845952503
809,0.374394936685734
810,0.370853556173193
811,0.368239050192055
812,0.366404363671962
813,0.36495207671752
814,0.363675725492519
815,0.362555831733319
816,0.361632925010085
817,0.36097273788239
818,0.360598968713619
819,0.360432420667746
820,0.360398899507629
821,0.360578908273145
822,0.361190412064028
823,0.36250459136947
824,0.364877542102545
825,0.368606479416779
826,0.373335826860138
827,0.377550696015961
828,0.379065907436308
829,0.376384833851661
830,0.36974790657486
831,0.361009893281559
832,0.352575566274102
833,0.346229145589522
834,0.342526168665568
835,0.341008515043918
836,0.340922103232324
837,0.341734404874597
838,0.343168211743385
839,0.345068029671561
840,0.347437125389756
841,0.350411378858807
842,0.354099452380936
843,0.3586064821431
844,0.364242217493867
845,0.371176967945785
846,0.378406445795074
847,0.383495574106537
848,0.384295529461724
849,0.381279506072065
850,0.377637470485153
851,0.376678311835437
852,0.379476986206843
853,0.384966653118985
854,0.391653624151287
855,0.398811721448422
856,0.406401962965279
857,0.414604826483293
858,0.423657332350758
859,0.433789681987396
860,0.445197521712338
861,0.458085542594132
862,0.472658398869388
863,0.488986880775798
864,0.506957841756286
865,0.526577892901762
866,0.548161363813474
867,0.571997942541298
868,0.597709933242806
869,0.623779827732507
870,0.647423293840243
871,0.66497883057941
872,0.673218240156454
873,0.67077707914667
874,0.65845679251768
875,0.638094059803766
876,0.611638626662607
877,0.581152670243275
878,0.548701444345837
879,0.516152397416047
880,0.485047597523592
881,0.456300047054448
882,0.429505088618136
883,0.402825019999328
884,0.374509584296935
885,0.344883504912147
886,0.316748793357347
887,0.293683410465147
888,0.27799183056028
889,0.269781141278898
890,0.267415568566846
891,0.268613390909951
892,0.271379825102047
893,0.274627988696381
894,0.27810395571058
895,0.281772226675224
896,0.285332795078098
897,0.288345057886547
898,0.290654663905622
899,0.292419109398139
900,0.293821507865654
901,0.294976235876635
902,0.296057638270526
903,0.297299934034995
904,0.298820677818226
905,0.300621743427622
906,0.302754787535675
907,0.3053341908603
908,0.308379404133832
909,0.311778682840731
910,0.315421121514945
911,0.319283828678265
912,0.323367788364919
913,0.327632581836556
914,0.331962019522417
915,0.336131152664114
916,0.339864561326078
917,0.343016772494963
918,0.345631262335058
919,0.347773729500284
920,0.349436853030128
921,0.350676286333122
922,0.35170494102569
923,0.352711964913829
924,0.353704619802338
925,0.354650600918771
926,0.355670567185613
927,0.356957692779013
928,0.358599210238121
929,0.360611961350066
930,0.363058293958254
931,0.366019187072096
932,0.369507506545022
933,0.373480321798154
934,0.377746749524741
935,0.381706558977296
936,0.38438447523941
937,0.385091511539563
938,0.384080211399878
939,0.382393993982003
940,0.381079903733979
941,0.380606707015443
942,0.380902192551382
943,0.381664404004831
944,0.382585501000964
945,0.383484469606235
946,0.384385418086992
947,0.385461573845552
948,0.386858844948798
949,0.388574777021378
950,0.390473602740931
951,0.392408372816456
952,0.394359237114521
953,0.396458202605084
954,0.398828105888615
955,0.401390816078644
956,0.403945430805807
957,0.406438649677238
958,0.409020102368554
959,0.411789497234898
960,0.414638632036995
961,0.41741776080195
962,0.420106125324749
963,0.422742379561741
964,0.425370054992679
965,0.428161958998451
966,0.43138841021263
967,0.435028739925821
968,0.43851240948883
969,0.441065230056647
970,0.442342392410737
971,0.442641804742048
972,0.442605031658865
973,0.442817514955298
974,0.443592430327197
975,0.444962466566373
976,0.446808051021374
977,0.44901995541575
978,0.451540670744145
979,0.454311461154331
980,0.457288529806868
981,0.460501190067316
982,0.463975409571129
983,0.467568033462725
984,0.471036143988419
985,0.474292140097802
986,0.477441703904402
987,0.480564500850439
988,0.483648936429651
989,0.486784796935882
990,0.490207194727323
991,0.494077859578678
992,0.498414738543737
993,0.503256342733999
994,0.508645076219063
995,0.514387496971327
996,0.52009330818199
997,0.525629914851484
998,0.531293932443786
999,0.537425595012006
1000,0.544119726825325
1001,0.551397896910234
1002,0.559372801890711
1003,0.568018081420858
1004,0.577048284489925
1005,0.586235730875644
1006,0.595594105945552
1007,0.605077533011147
1008,0.614393896470733
1009,0.623340829192893
1010,0.632019920695098
1011,0.640501066671682
1012,0.648585656719651
1013,0.656160049951775
1014,0.663449895608468
1015,0.670644825955152
1016,0.677617832634969
1017,0.684290685598681
1018,0.690956108765315
1019,0.697973354603869
1020,0.705506450627451
1021,0.713802835797878
1022,0.723357540531172
1023,0.734537055803145
1024,0.747408058304685
1025,0.762152416403963
1026,0.778834871544387
1027,0.795959271159968
1028,0.809626935608364
1029,0.815412334748756
1030,0.811720069292378
1031,0.801432672769363
1032,0.790370945033292
1033,0.784030385285432
1034,0.784938414825532
1035,0.792119362742718
1036,0.802643999747314
1037,0.813690130310093
1038,0.823677014584961
1039,0.832095544906696
1040,0.839113008433024
1041,0.845319287487481
1042,0.851284424015745
1043,0.857066231437702
1044,0.862460546248612
1045,0.867662568644534
1046,0.873184702381222
1047,0.879118076850283
1048,0.885025139362788
1049,0.890662961368444
1050,0.896219852312329
1051,0.901749006098874
1052,0.907040771493193
1053,0.912231095234106
1054,0.91786348769796
1055,0.924122752198389
1056,0.930565440046515
1057,0.936720235316927
1058,0.942406441092602
1059,0.947417296764539
1060,0.951551785456476
1061,0.955105479203097
1062,0.958738988017461
1063,0.962692389172853
1064,0.966658067047069
1065,0.970383475175641
1066,0.973768003143187
1067,0.976472118652771
1068,0.978236888341466
1069,0.979648348790522
1070,0.981759428501075
1071,0.984873031451503
1072,0.988405664459911
1073,0.991905952608126
1074,0.99533211262509
1075,0.998295339394097
1076,0.99996872500464
1077,1
1078,0.998648464637238
1079,0.995965858409059
1080,0.991787850742293
1081,0.986571861203766
1082,0.981306967400407
1083,0.976348213360627
1084,0.971301120767497
1085,0.966125480537432
1086,0.961407334684246
1087,0.957392274996936
1088,0.953644457679432
1089,0.94986221245663
1090,0.946210076676774
1091,0.94270254098112
1092,0.939076056556652
1093,0.935470179140473
1094,0.932401567728765
1095,0.929874277233599
1096,0.92726692976908
1097,0.924266552978807
1098,0.921122951171778
1099,0.917840851103656
1100,0.913964429482697
1101,0.909349604791133
1102,0.904349077428187
1103,0.899114186916758
1104,0.893205014157393
1105,0.88643711873565
1106,0.879066888924705
1107,0.871142593575151
1108,0.862375331820588
1109,0.852765841372903
1110,0.842706296774268
1111,0.832306141770212
1112,0.821377274041927
1113,0.8101416969183
1114,0.799194906347684
1115,0.788743859254913
1116,0.778566611721242
1117,0.768766555465352
1118,0.759828335915611
1119,0.751873998800901
1120,0.744517860345704
1121,0.737547868745082
1122,0.731040709328093
1123,0.7247522435824
1124,0.718112108824708
1125,0.710904844879018
1126,0.703161208608595
1127,0.694331318878878
1128,0.683617519136049
1129,0.671664331564057
1130,0.660962615535688
1131,0.653608498410678
1132,0.649310950984607
1133,0.646235524653381
1134,0.643007965790509
1135,0.63932214247148
1136,0.635369372411375
1137,0.631422571141184
1138,0.627738377500275
1139,0.624380586842797
1140,0.621154269911069
1141,0.617961678308193
1142,0.61503831712464
1143,0.612603986916513
1144,0.610548001348994
1145,0.608698101068203
1146,0.607148190296895
1147,0.606054303105881
1148,0.605308728819207
1149,0.604703964137361
1150,0.604207016127228
1151,0.603823966914369
1152,0.603350016887772
1153,0.602471297120015
1154,0.600929980308863
1155,0.598481210152623
1156,0.594968682864144
1157,0.590593535074981
1158,0.585895939921311
1159,0.581269423606281
1160,0.576701008956138
1161,0.572074934307097
1162,0.567469136734942
1163,0.563051091094128
1164,0.558950519619824
1165,0.555373540088738
1166,0.552554558886357
1167,0.550413991649116
1168,0.548467201602848
1169,0.546281414378725
1170,0.543871986141801
1171,0.541530616689235
1172,0.53950717438208
1173,0.53796111182699
1174,0.537004084718223
1175,0.536574327286946
1176,0.536362941292778
1177,0.535925120499805
1178,0.534760720622088
1179,0.532406124179603
1180,0.528885004245234
1181,0.525144801369462
1182,0.522536307725572
1183,0.521587108930231
1184,0.52164510042708
1185,0.52186457658169
1186,0.522108662229619
1187,0.522753406108422
1188,0.524021458370728
1189,0.52588045443414
1190,0.52838653814434
1191,0.531690171425333
1192,0.535886414197788
1193,0.541085313024417
1194,0.547482182990303
1195,0.555212843645597
1196,0.564210573441495
1197,0.574461632060941
1198,0.586101488793534
1199,0.598947805740203
1200,0.61201988465452
1201,0.623753372745511
1202,0.632558706723038
1203,0.637247707427627
1204,0.637585888666903
1205,0.634551033548677
1206,0.62972684061668
1207,0.624023291068942
1208,0.617203693919752
1209,0.608753150208121
1210,0.59854158936143
1211,0.586698464540338
1212,0.57332968643873
1213,0.55870027067793
1214,0.543407108387725
1215,0.528066056626905
1216,0.513100864678183
1217,0.498904824721686
1218,0.485949131257312
1219,0.474548429972368
1220,0.4647136907668
1221,0.456283488160316
1222,0.449045485414139
1223,0.442672524307681
1224,0.436687689922989
1225,0.43075422365503
1226,0.424900222566503
1227,0.419344710699684
1228,0.414213722472125
1229,0.409493451207725
1230,0.405131530455385
1231,0.4010084168555
1232,0.396913669504677
1233,0.392735374650822
1234,0.388587868130666
1235,0.384643220577883
1236,0.380924940046237
1237,0.377404126045964
1238,0.374216240338785
1239,0.371568517811754
1240,0.369444443864816
1241,0.367542827963738
1242,0.365529014273786
1243,0.363259101365675
1244,0.360787927476897
1245,0.358298570452112
1246,0.355994973786494
1247,0.353935286885521
1248,0.351951646357038
1249,0.349797415152209
1250,0.347346689761585
1251,0.344608019032067
1252,0.341630527725523
1253,0.338477515593928
1254,0.335251812450232
1255,0.332042749311262
1256,0.328846552697439
1257,0.325609798280654
1258,0.322312141692267
1259,0.318921178378834
1260,0.315335896239077
1261,0.311547360176948
1262,0.307813288009537
1263,0.304527981033176
1264,0.301932586833234
1265,0.30003478921687
1266,0.298779776181247
1267,0.298096794138447
1268,0.297816736412735
1269,0.297716035409078
1270,0.297662483554435
1271,0.297614994861133
1272,0.297512310157956
1273,0.297330839794578
1274,0.297227959662303
1275,0.297436762444505
1276,0.298024069594047
1277,0.298893357409344
1278,0.300010401731976
1279,0.301413947385622
1280,0.302974402132466
1281,0.304399585804831
1282,0.305544907732268
1283,0.30650153707624
1284,0.307345798122272
1285,0.308044190949239
1286,0.308664034730327
1287,0.309412573448836
1288,0.310380652039199
1289,0.311476710877645
1290,0.312661861320188
1291,0.314021610381014
1292,0.315562337201427
1293,0.317167896495046
1294,0.318815210244329
1295,0.320592157114286
1296,0.322465312900197
1297,0.324264569271162
1298,0.325951710015435
1299,0.327666556822417
1300,0.329466419195678
1301,0.331258222268972
1302,0.333040656385921
1303,0.334948904249794
1304,0.337021946805417
1305,0.339168412035285
1306,0.341398133138138
1307,0.343824754768259
1308,0.346403305433102
