"Wave Length","Absorbance"
450,0.82981252790085
451,0.834664792383399
452,0.837590030721879
453,0.840326466316731
454,0.844603280120567
455,0.848740512264001
456,0.850352117608343
457,0.850058349118623
458,0.85033013091941
459,0.850972612966532
460,0.850432715244798
461,0.849731837092606
462,0.850237229244323
463,0.850666824126287
464,0.848986137493639
465,0.845581264110132
466,0.841717678494982
467,0.836766501508404
468,0.829833019523911
469,0.822341284318837
470,0.815682859096451
471,0.808170598165287
472,0.797233421543333
473,0.78397062829068
474,0.771526097856744
475,0.759883575445784
476,0.746972436251753
477,0.732502575952203
478,0.717800571666245
479,0.703482114665803
480,0.689217016520668
481,0.675120613963258
482,0.661527193144664
483,0.647837118880401
484,0.633190225738408
485,0.618045092078978
486,0.603468007288539
487,0.589392400817585
488,0.575170479046381
489,0.560949093335852
490,0.547195379840779
491,0.533633415069171
492,0.519979743691108
493,0.507256164532591
494,0.496733519117656
495,0.488074723059877
496,0.479967083034502
497,0.472169429664832
498,0.46557268611393
499,0.46044195687772
500,0.455837156134182
501,0.450908096156969
502,0.445830598816379
503,0.441221153591798
504,0.437280051843844
505,0.434024931404707
506,0.431543369646769
507,0.429525117489983
508,0.427287743509569
509,0.424596328376535
510,0.421849799279094
511,0.419326293577841
512,0.416885447306224
513,0.414411162174175
514,0.411814584429817
515,0.408642532194163
516,0.40437705189535
517,0.399420558101052
518,0.395107853135771
519,0.3922830521255
520,0.390559711567115
521,0.389268564402999
522,0.388289491492232
523,0.387743745178035
524,0.38759686342637
525,0.387827383986826
526,0.388543594257078
527,0.389614558104733
528,0.390594724800995
529,0.39130410028762
530,0.39195518348733
531,0.392590695935162
532,0.3929201824892
533,0.392868933554514
534,0.392806067666235
535,0.393041153544232
536,0.393466021219056
537,0.39383212489294
538,0.39401981452031
539,0.3940095529362
540,0.393858958397076
541,0.39379736554972
542,0.394015948765477
543,0.394343547768449
544,0.394484134402568
545,0.39456665585543
546,0.39502089355503
547,0.395881487559992
548,0.396723329652603
549,0.397426583229544
550,0.398370544491926
551,0.399710376304807
552,0.401062119581337
553,0.402174877896677
554,0.403405464434808
555,0.405244860515117
556,0.407759000290962
557,0.410628669148756
558,0.413359139911973
559,0.415286989388607
560,0.415893627757597
561,0.415389136843338
562,0.414587290495453
563,0.414110220980695
564,0.414047643965781
565,0.414322315704716
566,0.414924423041314
567,0.415730046999976
568,0.416503362275957
569,0.417240395637142
570,0.418138025903139
571,0.419158213292033
572,0.420004582857762
573,0.420527472750902
574,0.420781533895285
575,0.420787047929924
576,0.420684100261638
577,0.420928699720888
578,0.421779521873867
579,0.42280982696727
580,0.42342923963141
581,0.42371830911599
582,0.424205797951503
583,0.424956443556962
584,0.425581752710349
585,0.426071837845713
586,0.426834155220216
587,0.427906869723906
588,0.42887663939684
589,0.429641021385102
590,0.430526635692739
591,0.431592435168147
592,0.432519083061363
593,0.433314976109198
594,0.434403704866671
595,0.435862305848532
596,0.437286783245507
597,0.438481413703168
598,0.439591388856611
599,0.440466927319052
600,0.440600335315155
601,0.439892927497459
602,0.438760005596137
603,0.437334136508718
604,0.435291342159031
605,0.432603938049231
606,0.429694306233545
607,0.426712555372343
608,0.423382988760564
609,0.41974699844897
610,0.416267321908192
611,0.413019600855929
612,0.40967952115297
613,0.406291347792238
614,0.403361324615913
615,0.401246397857495
616,0.400211635448584
617,0.400984298400493
618,0.404175854987786
619,0.408734176932105
620,0.412073563291236
621,0.412475479609773
622,0.410630286707338
623,0.408291352339947
624,0.405867231119339
625,0.401822396983608
626,0.394291825651288
627,0.383017547387986
628,0.369814915275586
629,0.357351722512423
630,0.347466937541589
631,0.340411386603601
632,0.335496645555834
633,0.332111023721192
634,0.329996010976645
635,0.328909600980423
636,0.328529566537142
637,0.328712526139743
638,0.329518493087291
639,0.330883271569792
640,0.332766401184822
641,0.335676972223004
642,0.340119538770606
643,0.345172267456005
644,0.348305772094449
645,0.347182160277363
646,0.341569199599872
647,0.333438106182705
648,0.32547575853963
649,0.319544066144451
650,0.315918319722914
651,0.313595248321219
652,0.311602229510817
653,0.30983602354351
654,0.308525906134111
655,0.307522181831299
656,0.306467545201406
657,0.305434273848826
658,0.304742252652725
659,0.304378582998265
660,0.304086783557295
661,0.303996140246874
662,0.30413860187853
663,0.304051429681545
664,0.303043357495695
665,0.300761667201883
666,0.297181845195563
667,0.292732344173209
668,0.289657097557948
669,0.292739911029328
670,0.299535294056537
671,0.305707740963201
672,0.310496517488409
673,0.314236994236313
674,0.317246771133862
675,0.319838041104288
676,0.322279817383458
677,0.324468116704419
678,0.325982664902397
679,0.326612368572427
680,0.326411294727602
681,0.325654001857189
682,0.324602677463979
683,0.323676743201849
684,0.323338163802424
685,0.323682490153493
686,0.324525841199424
687,0.325854723787778
688,0.327924384715981
689,0.330888070104404
690,0.334666652150922
691,0.339190914644069
692,0.344505935697986
693,0.350748687425277
694,0.358054296991301
695,0.366510606358367
696,0.376233557601643
697,0.387260529940695
698,0.399467063133298
699,0.41242704675992
700,0.425144774090671
701,0.436112210037416
702,0.443681552009568
703,0.446764823968436
704,0.445686173404463
705,0.442501524610539
706,0.440487769230891
707,0.442978400660466
708,0.452268108896443
709,0.468514107801168
710,0.487927600989575
711,0.50183560040495
712,0.499738255138838
713,0.476127497644402
714,0.43552391011204
715,0.389806892395991
716,0.35021899669092
717,0.321820239325708
718,0.303850633715626
719,0.293342655347341
720,0.287756836617698
721,0.28541478802442
722,0.285104033136207
723,0.285958486298609
724,0.28743183927796
725,0.289188037768016
726,0.291075292529774
727,0.293113744853741
728,0.295295807118515
729,0.297415129617269
730,0.299242144557957
731,0.300779442235135
732,0.302221062523766
733,0.303662454309112
734,0.305066571914053
735,0.306494484444528
736,0.30804827534742
737,0.309639537073595
738,0.311054296647577
739,0.312189469183311
740,0.313023688191275
741,0.313433640671668
742,0.313259420502359
743,0.312545108385218
744,0.311581315124142
745,0.310724766314271
746,0.310238360689271
747,0.310228621978862
748,0.310638546032167
749,0.311347452545216
750,0.312328287774389
751,0.313632078807258
752,0.31520104210954
753,0.316853726872416
754,0.318517887590582
755,0.320319855590253
756,0.322338185545113
757,0.324390031030746
758,0.326203820699719
759,0.327727227826824
760,0.329160432622335
761,0.330756719332567
762,0.332671834097378
763,0.334936422455511
764,0.33749700341588
765,0.340335996499036
766,0.343603660949384
767,0.347566839358839
768,0.352369320215487
769,0.357847748075463
770,0.363529392301189
771,0.368738058922559
772,0.372818643665805
773,0.375524108567595
774,0.377240379394246
775,0.378683827851572
776,0.380343618650754
777,0.382303826723164
778,0.384510729855654
779,0.386939259822769
780,0.389461584559874
781,0.391805664206184
782,0.393772450964586
783,0.395340077935906
784,0.396480072115745
785,0.397052508532582
786,0.396989150926492
787,0.396435582570348
788,0.395613317098202
789,0.394645328596159
790,0.393582169760642
791,0.392464926290691
792,0.391273321168047
793,0.389928132010655
794,0.388428264651612
795,0.386889368933525
796,0.38537795964176
797,0.383821315946614
798,0.382164900536012
799,0.38050251586052
800,0.378961268993959
801,0.37758605080119
802,0.376472706920822
803,0.375888797728379
804,0.376019252350861
805,0.376537916077247
806,0.37659134279138
807,0.375364887512591
808,0.37273260023961
809,0.36936096856749
810,0.366184511614485
811,0.363762736614211
812,0.362074628055547
813,0.360806513581947
814,0.359713964289061
815,0.35871799657453
816,0.357795739311694
817,0.356919683905336
818,0.356095084110036
819,0.355385671964892
820,0.354896745517632
821,0.354761529418253
822,0.355139339006233
823,0.356199988083107
824,0.358111361461747
825,0.36093712595428
826,0.364308194371717
827,0.367083241198934
828,0.367612796653105
829,0.364750759524464
830,0.358794441206399
831,0.351406275623018
832,0.344561357055751
833,0.339500890569627
834,0.336452881707724
835,0.335056760682741
836,0.334877239572704
837,0.335573782492192
838,0.336851708765112
839,0.338494297081184
840,0.340523653068339
841,0.343187833066541
842,0.346757890360488
843,0.351447218362853
844,0.357478988367081
845,0.364759984017199
846,0.37206888927385
847,0.376971393429952
848,0.377501852877447
849,0.374364279211516
850,0.370898789438019
851,0.370376861539452
852,0.373637006744004
853,0.379396391227343
854,0.386210302905483
855,0.393560916528663
856,0.401439483957847
857,0.409849048964471
858,0.418945524698577
859,0.42908193073675
860,0.440498558350116
861,0.453215636324221
862,0.467279352549383
863,0.482827353644341
864,0.499855415598653
865,0.518278533557993
866,0.538206332147456
867,0.559792729234691
868,0.582597969219983
869,0.605159249334112
870,0.625053474901372
871,0.639283323207157
872,0.645156782736681
873,0.641372298860678
874,0.628511638433428
875,0.608307822367277
876,0.582709942217145
877,0.553638315852793
878,0.522971963552452
879,0.492546177921679
880,0.463894779519597
881,0.437697050983434
882,0.413219030917933
883,0.38855687193904
884,0.36218323916213
885,0.334664722785148
886,0.308869964784266
887,0.288258650975236
888,0.274837273418745
889,0.268368906966065
890,0.267121382026832
891,0.269066531265368
892,0.272508745008412
893,0.276345498993764
894,0.280116639310269
895,0.283781697523817
896,0.28732673778917
897,0.290591302479471
898,0.293444067249416
899,0.295871852653766
900,0.297861323327694
901,0.299385632612573
902,0.300577647049571
903,0.301740792843394
904,0.303141396124428
905,0.304899353616998
906,0.307074700789344
907,0.309694837507813
908,0.312685013338478
909,0.315946290739743
910,0.319523451549662
911,0.323548333415594
912,0.327978006407536
913,0.332551148331137
914,0.337006008542887
915,0.341200223507713
916,0.345042300193395
917,0.348479603747207
918,0.351552751992655
919,0.354310478801386
920,0.356690317519687
921,0.358594563556082
922,0.360050179649867
923,0.361155579326032
924,0.361950359605922
925,0.36250654941988
926,0.363087543211988
927,0.364038287713477
928,0.365530120901519
929,0.367534282018351
930,0.36998664881044
931,0.372856849823756
932,0.376103491694389
933,0.379674340856313
934,0.383424519208912
935,0.386876751051204
936,0.389239269155208
937,0.389981097182459
938,0.389372548287749
939,0.388268941909153
940,0.387402190417713
941,0.387009168972415
942,0.387018601220851
943,0.387313687230588
944,0.387811552128612
945,0.388502746085441
946,0.389463146045688
947,0.390722600217925
948,0.392157252002713
949,0.393646033789629
950,0.395250239547891
951,0.397080121589252
952,0.399066172535778
953,0.401038822645034
954,0.402978135195202
955,0.40498944457942
956,0.40709476768019
957,0.40923648689511
958,0.411426714396806
959,0.413712853296608
960,0.416044404679379
961,0.418353686766872
962,0.420708011248135
963,0.423212485913006
964,0.4258509858741
965,0.428604712711658
966,0.431602911518129
967,0.434888765763269
968,0.438089684777515
969,0.440605841464543
970,0.44217961812682
971,0.443106076297206
972,0.443911073111572
973,0.444982543294419
974,0.446466570706299
975,0.44830687565359
976,0.450325511663002
977,0.452390956827495
978,0.454538849669493
979,0.456881856000495
980,0.459463992064088
981,0.462274872808727
982,0.465312222496806
983,0.468507916052921
984,0.471692922845776
985,0.474755431069016
986,0.477741864001276
987,0.480719502055694
988,0.483677817306952
989,0.486687985570497
990,0.489993154921256
991,0.493784061667485
992,0.498031740844817
993,0.502657571177554
994,0.507681663068397
995,0.513052175884244
996,0.518531735535524
997,0.523998871450044
998,0.529671927033007
999,0.535833493754529
1000,0.542533459637126
1001,0.54974384454571
1002,0.557588929067002
1003,0.56612216503962
1004,0.575076100652602
1005,0.584118511342295
1006,0.59317636952346
1007,0.602251462366708
1008,0.611135481514534
1009,0.61961483911231
1010,0.627741789795182
1011,0.635619161170261
1012,0.643123098606814
1013,0.650141618183368
1014,0.656855685368047
1015,0.663486565315742
1016,0.670018371065506
1017,0.676443076546464
1018,0.683006760020092
1019,0.689938337326562
1020,0.69726680446228
1021,0.705184571977353
1022,0.714246412809957
1023,0.724889273000469
1024,0.737108066494475
1025,0.750883293751123
1026,0.766215212134709
1027,0.78192308457064
1028,0.79479064699134
1029,0.8011152717481
1030,0.799637406759828
1031,0.792865035608727
1032,0.785614143355058
1033,0.782306966572597
1034,0.784970417271843
1035,0.792865101399056
1036,0.803614867856988
1037,0.814812576493631
1038,0.824990727794093
1039,0.833581917722888
1040,0.840678276385623
1041,0.846934227099785
1042,0.853154315920556
1043,0.859624081837082
1044,0.866090979899429
1045,0.872414661414403
1046,0.878763385537207
1047,0.885100819109081
1048,0.891062522512176
1049,0.896580242672341
1050,0.902056021103204
1051,0.907688586126891
1052,0.913226469545023
1053,0.91862144254923
1054,0.924289632878273
1055,0.930430137579368
1056,0.936672072098312
1057,0.942621536415944
1058,0.948184388614049
1059,0.953181797790903
1060,0.957300431051153
1061,0.9606869745679
1062,0.963989689532584
1063,0.967522767578087
1064,0.970955036064536
1065,0.973976676373741
1066,0.97665590284556
1067,0.979024981355417
1068,0.981018918535623
1069,0.98301302660736
1070,0.985667124134905
1071,0.988994562841612
1072,0.992258301228418
1073,0.994961477735526
1074,0.997233996025532
1075,0.999075608858743
1076,1
1077,0.999701682554613
1078,0.99826725586941
1079,0.995572409065934
1080,0.99133461473779
1081,0.985960746981867
1082,0.980513013937574
1083,0.975520708905916
1084,0.970651082001296
1085,0.96571172633847
1086,0.96111078007343
1087,0.957086420050804
1088,0.953298920227775
1089,0.949509382878108
1090,0.945942097417527
1091,0.942699666503512
1092,0.939498355416537
1093,0.936263996039033
1094,0.933302101225025
1095,0.930617768181739
1096,0.927723429306989
1097,0.924377453599342
1098,0.920847290250522
1099,0.917212264122208
1100,0.913108005464215
1101,0.908383783191806
1102,0.903359640839725
1103,0.89813866584042
1104,0.892343682672083
1105,0.885775055085042
1106,0.878668390423407
1107,0.871103912498934
1108,0.862777956036444
1109,0.853577391427778
1110,0.84381731335672
1111,0.833667521172772
1112,0.822980338333985
1113,0.811858985789797
1114,0.800820338520697
1115,0.790218375415857
1116,0.780011540269413
1117,0.770247640842165
1118,0.761238143317645
1119,0.753109110723503
1120,0.745640646668772
1121,0.738673863069856
1122,0.732174444492966
1123,0.7257987838045
1124,0.718948872364537
1125,0.711403518441431
1126,0.703366047154909
1127,0.694804574088049
1128,0.685450487926569
1129,0.675774509423802
1130,0.667220247719857
1131,0.66084295528148
1132,0.656245077338249
1133,0.652289041862701
1134,0.648322568874553
1135,0.644324460373319
1136,0.640382666527949
1137,0.636522726693873
1138,0.632820558129544
1139,0.629323877284155
1140,0.625947802512182
1141,0.622671289289512
1142,0.619668532752185
1143,0.617055131212487
1144,0.614747337378875
1145,0.612736195293427
1146,0.61123471975814
1147,0.610337331035036
1148,0.609772924905481
1149,0.609245062523045
1150,0.608759785657383
1151,0.608374375541244
1152,0.607849975917228
1153,0.606810693638761
1154,0.605033146800729
1155,0.602405779504861
1156,0.598869063106475
1157,0.594595574890171
1158,0.590027604052544
1159,0.585511972384177
1160,0.581085951753642
1161,0.576745137368302
1162,0.572665518151064
1163,0.568998172377301
1164,0.565680776882303
1165,0.5626425587455
1166,0.559965847948028
1167,0.557659085346097
1168,0.555473551652257
1169,0.553165191631254
1170,0.550766892432953
1171,0.548424513263565
1172,0.546172278864512
1173,0.544050584941562
1174,0.542263396410318
1175,0.54098454771704
1176,0.540092760953211
1177,0.53923935319243
1178,0.538063702308945
1179,0.536297712909464
1180,0.533945122288084
1181,0.531501746257081
1182,0.529716751797016
1183,0.528912506492503
1184,0.528760777896105
1185,0.528856459627948
1186,0.529202613139982
1187,0.530010884837218
1188,0.53131726309586
1189,0.533075874264736
1190,0.535458092201891
1191,0.538722465025101
1192,0.542994381595941
1193,0.548368997475292
1194,0.555053233626806
1195,0.563206020958207
1196,0.572721670391502
1197,0.58345410235237
1198,0.595413762115212
1199,0.608405735148165
1200,0.621559372181582
1201,0.633467109973401
1202,0.64267100666143
1203,0.648043495705236
1204,0.649262174132779
1205,0.647065690608668
1206,0.642765412975931
1207,0.637122212751914
1208,0.629923887253726
1209,0.620747734664505
1210,0.609502483873318
1211,0.596302594963563
1212,0.581308321508808
1213,0.564956370867942
1214,0.548028326633453
1215,0.531187748396186
1216,0.514750413324017
1217,0.498991715727633
1218,0.484393977474447
1219,0.471387886731411
1220,0.460065590720178
1221,0.450266489713782
1222,0.441786252393255
1223,0.434365115560768
1224,0.42758829328026
1225,0.421125046890009
1226,0.414982802696727
1227,0.409334990020035
1228,0.40419248802352
1229,0.399386910781098
1230,0.394811707382715
1231,0.390445281353023
1232,0.386196431716882
1233,0.381969520633065
1234,0.377838374947655
1235,0.373969550631417
1236,0.370390830851856
1237,0.36703266826524
1238,0.363968020325743
1239,0.36134605358458
1240,0.359084904272976
1241,0.356868556157171
1242,0.354493256839903
1243,0.352018139265158
1244,0.349548582552902
1245,0.347095814649025
1246,0.344687649955363
1247,0.342390558014304
1248,0.340138639214005
1249,0.337727737199965
1250,0.335049537993434
1251,0.332174942908385
1252,0.329164978061485
1253,0.325985482412294
1254,0.322670161438927
1255,0.319378084081319
1256,0.316199128258732
1257,0.313045459211737
1258,0.309783976963009
1259,0.306346573584706
1260,0.30270432979192
1261,0.298936206084252
1262,0.295345964094012
1263,0.29231047708235
1264,0.289933351588328
1265,0.288038410417923
1266,0.286533634908011
1267,0.285522630548147
1268,0.285029310883138
1269,0.284854681499564
1270,0.284811039304128
1271,0.28489004803096
1272,0.285084242324174
1273,0.285298763024714
1274,0.285543301672169
1275,0.285972564990823
1276,0.286646887533677
1277,0.28745606609291
1278,0.28835375053167
1279,0.289428788149194
1280,0.290649921409033
1281,0.291795011483305
1282,0.292727995563251
1283,0.293528326297455
1284,0.294268622503079
1285,0.294919792692429
1286,0.295548181889569
1287,0.29634577773188
1288,0.297369411265469
1289,0.298480216897742
1290,0.299628834070549
1291,0.300942507642338
1292,0.30244335332554
1293,0.303957988636306
1294,0.305396784517377
1295,0.306855607539509
1296,0.308372489631685
1297,0.309851550599434
1298,0.311309518934615
1299,0.31291520332384
1300,0.314690192631656
1301,0.316463773447753
1302,0.318196316316878
1303,0.32005504297446
1304,0.322093100056021
1305,0.324144142731396
1306,0.326132185382683
1307,0.328189836089528
1308,0.330392598417125
1309,0.332646607719955
