"Wave Length","Absorbance"
450,0.841366754554106
451,0.845829428923146
452,0.850225607768306
453,0.85388517247781
454,0.856897531878876
455,0.860168094631055
456,0.863019362891024
457,0.863123026955368
458,0.860137973936308
459,0.857436336848238
460,0.857288382636474
461,0.858656701778702
462,0.860140707353649
463,0.861366742307365
464,0.861974560543276
465,0.861181020646149
466,0.858656677086437
467,0.854685579070307
468,0.84950584096639
469,0.843252559134151
470,0.836069598543557
471,0.827626943353823
472,0.816948656713775
473,0.804064871389344
474,0.790972811013815
475,0.779121748198259
476,0.767426177693628
477,0.754204084909203
478,0.739692434033215
479,0.725544803033434
480,0.712141316002198
481,0.698166328339651
482,0.682975845754022
483,0.667571311362993
484,0.652789733115752
485,0.638201600184178
486,0.623467538815529
487,0.609098286819443
488,0.595213149719337
489,0.581143500566587
490,0.566673051105551
491,0.552474381732476
492,0.539041665844416
493,0.526465209344594
494,0.515317961199892
495,0.506261913374742
496,0.498602146355282
497,0.490949643893908
498,0.483330870498835
499,0.476919547283822
500,0.471645723399195
501,0.466023002452311
502,0.459934767279769
503,0.455430846419319
504,0.453322118215976
505,0.451833019867867
506,0.449575577897441
507,0.447075702207259
508,0.444950922079212
509,0.442609453198611
510,0.439795217436207
511,0.437435463081534
512,0.435799072561495
513,0.433662133440011
514,0.430129444000918
515,0.42588383115881
516,0.421827322638911
517,0.417899610614743
518,0.414041936707831
519,0.41091137784569
520,0.408599915591837
521,0.406339150768524
522,0.404181896594043
523,0.403141582481543
524,0.403327409615607
525,0.403543157935449
526,0.403436154847006
527,0.404284497151833
528,0.406427614269624
529,0.408323384287225
530,0.409157246156367
531,0.409924222453566
532,0.411288334251836
533,0.412252475399924
534,0.411953000881109
535,0.41115374206759
536,0.410790472169826
537,0.410544531276538
538,0.409922736502193
539,0.409452595475873
540,0.409565659869935
541,0.409720905083086
542,0.409619748814839
543,0.409893831888624
544,0.410661099327333
545,0.410876268029372
546,0.410089196457319
547,0.409427330282799
548,0.409767665629496
549,0.410472708404186
550,0.410977521442858
551,0.411903621903015
552,0.413654336152202
553,0.415542830595724
554,0.417284148456349
555,0.419741720352718
556,0.423257387058137
557,0.426674230686587
558,0.428968051559884
559,0.430386215377554
560,0.431185397809524
561,0.430792725376269
562,0.429144566483193
563,0.427573567243085
564,0.427293619869746
565,0.428043876225471
566,0.429041552447017
567,0.430134692968765
568,0.431176615503806
569,0.431610342607539
570,0.431518581572004
571,0.431872901446448
572,0.432993040223074
573,0.43394840349356
574,0.434074602843733
575,0.433887661815703
576,0.434041964403694
577,0.43439889243729
578,0.434752317433582
579,0.435339505952398
580,0.436060049174104
581,0.43634726419829
582,0.436324814221579
583,0.43689157145557
584,0.438208067576424
585,0.439397615468878
586,0.440085391158822
587,0.440985615897737
588,0.442503454432826
589,0.444031322224319
590,0.445058917425846
591,0.445899410297125
592,0.446899562926926
593,0.447946162257707
594,0.449154596476007
595,0.450929180334294
596,0.452987533550528
597,0.454409492065371
598,0.454881842388761
599,0.454903444812347
600,0.45465203264399
601,0.453746882185404
602,0.452258316143408
603,0.450753860111138
604,0.449159811991194
605,0.44675063248181
606,0.44340576165632
607,0.439779946151801
608,0.436145637235287
609,0.432238404828797
610,0.428255105856634
611,0.424811410125487
612,0.421912800092979
613,0.418951383590393
614,0.415878008330883
615,0.413543357270681
616,0.412795919651277
617,0.414011995110436
618,0.417291179197073
619,0.421863729609736
620,0.425483115172908
621,0.426038552673886
622,0.423876762648654
623,0.421164173443506
624,0.418656140297493
625,0.41437291603489
626,0.406104622269399
627,0.394151361740465
628,0.380878409514019
629,0.368581847622149
630,0.358543172252055
631,0.351164824055711
632,0.346128954033554
633,0.342741955615392
634,0.340631749061158
635,0.339804694474399
636,0.339901951702008
637,0.340188830757898
638,0.340573880035673
639,0.341725416562882
640,0.344079157788153
641,0.347619748186584
642,0.352332994179554
643,0.357650572795859
644,0.361393487833063
645,0.360709614777291
646,0.354807654554606
647,0.345983449968095
648,0.337483406877699
649,0.331089211380167
650,0.326866542148502
651,0.324150051756456
652,0.3222413405965
653,0.320628837959406
654,0.319201715440054
655,0.318200370245686
656,0.317654656828574
657,0.317201125970231
658,0.316575828025504
659,0.315877117847094
660,0.315260659225074
661,0.314806750819525
662,0.314583760748648
663,0.314605776348405
664,0.314252241832245
665,0.312056499540707
666,0.3072256252943
667,0.300928511527577
668,0.29747780280204
669,0.3013035438944
670,0.309362254850212
671,0.316959316805613
672,0.322791428148521
673,0.326782355563342
674,0.329521074302461
675,0.331953121491612
676,0.334729493381674
677,0.337313024006203
678,0.338829128836693
679,0.339279600081462
680,0.33913240615658
681,0.338473283004346
682,0.337228680905999
683,0.335940200103637
684,0.335274074520443
685,0.335190833373485
686,0.335521999184529
687,0.336707925587592
688,0.339200746925876
689,0.342656431799588
690,0.346553322820633
691,0.351030821445266
692,0.356403929966226
693,0.362636805943928
694,0.369767728623185
695,0.378242272281133
696,0.388362454473783
697,0.399772708217464
698,0.412009902601808
699,0.424841841718211
700,0.437462682897335
701,0.448169028326346
702,0.455307577387744
703,0.458254562512194
704,0.45749149441908
705,0.454507139749941
706,0.45212875538722
707,0.454023512377769
708,0.462985635955951
709,0.479191555163905
710,0.498771942384115
711,0.513251550817381
712,0.512058908975691
713,0.489014556678547
714,0.448154296055221
715,0.401664137452237
716,0.361225379199196
717,0.331870442725562
718,0.312851577962923
719,0.301668151555871
720,0.296055462949346
721,0.293914934510891
722,0.293626692730853
723,0.294560131801528
724,0.296449445497194
725,0.298671389660287
726,0.300735497668632
727,0.302849134413668
728,0.305251202463593
729,0.307497083972048
730,0.309099356373323
731,0.310314716261706
732,0.311652465377776
733,0.313066968924544
734,0.314335427890626
735,0.315729407671751
736,0.317515372352418
737,0.319311107595177
738,0.320657001796791
739,0.321713072530248
740,0.322732270383436
741,0.32336961676163
742,0.323171883729113
743,0.322299413419608
744,0.32121312027368
745,0.320146280223372
746,0.319353131138837
747,0.319296836404301
748,0.320061612725278
749,0.321110406559791
750,0.322082575363185
751,0.323265815246202
752,0.324865560644826
753,0.326500183896012
754,0.327930873280682
755,0.329587935693371
756,0.331780561793129
757,0.334004706410523
758,0.33566836342922
759,0.336949808680673
760,0.338365574508261
761,0.340032747341088
762,0.341901717555925
763,0.344169553344152
764,0.346903482048632
765,0.349776286604788
766,0.352709136882708
767,0.356267295954427
768,0.360898397798561
769,0.366244370832408
770,0.37161275195597
771,0.376566535367727
772,0.380648722330038
773,0.383260574123715
774,0.384436736333866
775,0.385187094758642
776,0.386487182041353
777,0.388369575657149
778,0.390420970197365
779,0.392568223131347
780,0.394853344368988
781,0.397003159053103
782,0.398805325329948
783,0.400445066011664
784,0.401971724479538
785,0.4029139843918
786,0.402904869458816
787,0.40222842677088
788,0.401322601694512
789,0.400229711939453
790,0.398933607324584
791,0.397687325313705
792,0.396564357476867
793,0.395217237565369
794,0.393506891400567
795,0.391835814891845
796,0.390454389807763
797,0.389040339167703
798,0.387398655401267
799,0.385931019053321
800,0.384936709160698
801,0.384112001596512
802,0.383276700564856
803,0.382932286877081
804,0.383451442782804
805,0.384219139664489
806,0.384175440977414
807,0.382835538137935
808,0.380374929873755
809,0.377235027162881
810,0.374114146359221
811,0.371828282969961
812,0.370627635397914
813,0.369958149781747
814,0.369229671281589
815,0.368425396498714
816,0.367699148665877
817,0.366942852167331
818,0.366139110641036
819,0.365628946781239
820,0.365612371193922
821,0.365832431524591
822,0.366144107316085
823,0.366939901367291
824,0.368639338600076
825,0.371155490028099
826,0.374057996830699
827,0.376628237901242
828,0.377542806599707
829,0.375370712327766
830,0.36998449868414
831,0.363015244109565
832,0.356515881062019
833,0.351591508641963
834,0.348452081123739
835,0.347063511432144
836,0.347197855147732
837,0.348302347895933
838,0.349899341205941
839,0.351945472313127
840,0.354572268843189
841,0.357782921544741
842,0.361692941676337
843,0.366742091435128
844,0.373295710960919
845,0.381001713532896
846,0.388436173005309
847,0.39334144130489
848,0.393875528514946
849,0.390557682102615
850,0.386732156209805
851,0.386094607243004
852,0.389696116988778
853,0.395884576531356
854,0.402873644909771
855,0.410349144554534
856,0.418582999948626
857,0.427439287154086
858,0.436861508020124
859,0.447303964433172
860,0.459070145764743
861,0.471908958549839
862,0.485718513901311
863,0.500965785880962
864,0.517978792265599
865,0.53655733746513
866,0.556600052481643
867,0.578331091793329
868,0.601355133161243
869,0.623992694301988
870,0.643764102262334
871,0.658012510000385
872,0.664226375777156
873,0.660760687130325
874,0.647861301229901
875,0.627349924963272
876,0.601250689923122
877,0.571227848302829
878,0.539062575490909
879,0.506998587353203
880,0.476996314909661
881,0.449759107646608
882,0.424489676728058
883,0.399399264326882
884,0.372908961305095
885,0.345212681732231
886,0.318970588926033
887,0.297868478280795
888,0.284129550312016
889,0.277416349053225
890,0.275922914141971
891,0.277797260607214
892,0.281398671489779
893,0.285374606340882
894,0.289143806760487
895,0.292876560016458
896,0.296652538067475
897,0.300052475456985
898,0.302799234405965
899,0.30511168159022
900,0.307140220911832
901,0.308671828112049
902,0.309707490940954
903,0.310720952344496
904,0.312038093796948
905,0.313533798237183
906,0.315217239877627
907,0.317512191523665
908,0.320620180661282
909,0.324186360832135
910,0.327917838024092
911,0.331998093796427
912,0.336549718567178
913,0.341234751412511
914,0.345705065727928
915,0.349947529326818
916,0.353915994276333
917,0.357341267995816
918,0.36018262574485
919,0.362767821342005
920,0.36523182391842
921,0.367265168858609
922,0.368660098049536
923,0.369624978625486
924,0.370368341764322
925,0.370879999300944
926,0.371335482500198
927,0.37221441166137
928,0.373758284738386
929,0.375731727456569
930,0.377910996734174
931,0.380394815997817
932,0.383273260355559
933,0.386428089290379
934,0.389741744956312
935,0.392988414824544
936,0.395452078164679
937,0.396316842152428
938,0.395651963621422
939,0.394479882328798
940,0.393680881335754
941,0.393323384075477
942,0.393197355406436
943,0.393352796172565
944,0.393830531319917
945,0.394413988510584
946,0.394992218214536
947,0.395754250463645
948,0.396791260612249
949,0.397940855904071
950,0.399210545784842
951,0.400889928479081
952,0.403031676158923
953,0.405265190083975
954,0.407336944509309
955,0.409384382626074
956,0.411501812164451
957,0.413518068618845
958,0.415398184814207
959,0.417412636840175
960,0.419687660855673
961,0.422014086209932
962,0.424272010287909
963,0.426621174839415
964,0.429130778682079
965,0.431674548536024
966,0.434311841363993
967,0.437255169606477
968,0.440275464326607
969,0.442656559391976
970,0.444011891635182
971,0.444730884969224
972,0.445438046891107
973,0.446415224350585
974,0.44772459931178
975,0.44944696109613
976,0.451527555819275
977,0.453735424942292
978,0.455989351602464
979,0.458446469199837
980,0.461158046054277
981,0.463959940177087
982,0.466786376662331
983,0.469735044015056
984,0.472768168627142
985,0.475719026223479
986,0.478627200548376
987,0.481690342469207
988,0.484868308150659
989,0.48797370523254
990,0.491162099912299
991,0.494864437110537
992,0.499196469425958
993,0.503865763063279
994,0.508685699822203
995,0.513718293663432
996,0.518905324172687
997,0.524110520772626
998,0.529556756235234
999,0.535704987147151
1000,0.542648951965235
1001,0.55009039494492
1002,0.557946714748386
1003,0.566417185406758
1004,0.575421781259894
1005,0.584543589690316
1006,0.593580963111278
1007,0.602619812694928
1008,0.611516040596426
1009,0.619876377280158
1010,0.627596633048663
1011,0.634912317594734
1012,0.641887408894808
1013,0.648384387453745
1014,0.654511990022626
1015,0.660549111444539
1016,0.666481749099056
1017,0.67216047131616
1018,0.677847152159648
1019,0.684042334031745
1020,0.690890171249053
1021,0.698327805984974
1022,0.706712670186613
1023,0.716666665633074
1024,0.728401278344967
1025,0.741752295914258
1026,0.756462168456963
1027,0.771390507417342
1028,0.783592356154208
1029,0.789577911853109
1030,0.78819395969108
1031,0.781940406742869
1032,0.775377319433254
1033,0.772536346631624
1034,0.775323255043982
1035,0.783239014804329
1036,0.7940958753669
1037,0.805419748804349
1038,0.815710317758641
1039,0.824546907809351
1040,0.83203038147141
1041,0.838599133250048
1042,0.845001656249148
1043,0.851752582619206
1044,0.858669266625733
1045,0.865336190301476
1046,0.871752776461056
1047,0.878090108344908
1048,0.884175770278942
1049,0.889823167807929
1050,0.895328179548225
1051,0.90103815109118
1052,0.90679109072674
1053,0.912393969334484
1054,0.918238156600394
1055,0.92474455409168
1056,0.931566874698714
1057,0.937971766266208
1058,0.943666857993285
1059,0.948719959844784
1060,0.953075907462031
1061,0.956790580493072
1062,0.960380916152595
1063,0.964292977554076
1064,0.968304393439006
1065,0.971912719677218
1066,0.974951640762884
1067,0.977445886124285
1068,0.979387992667889
1069,0.981164120533228
1070,0.983608011806387
1071,0.987035335856623
1072,0.990718673505361
1073,0.993826074414793
1074,0.996340142020221
1075,0.998493203846242
1076,0.999907701975158
1077,1
1078,0.998655825557501
1079,0.995931628237187
1080,0.991686178789211
1081,0.986105228765168
1082,0.980058468561304
1083,0.974265121016396
1084,0.968657681993103
1085,0.963062979454584
1086,0.957867010869602
1087,0.953439228554321
1088,0.949464671651605
1089,0.94548355701908
1090,0.941614571058228
1091,0.938179759631094
1092,0.93506006317177
1093,0.932004348738534
1094,0.929122996980485
1095,0.926514361393413
1096,0.923834727478438
1097,0.920770266774235
1098,0.917513073774401
1099,0.914272491506043
1100,0.910786100649496
1101,0.906767032097672
1102,0.902395635599734
1103,0.897825072661141
1104,0.892711885517986
1105,0.88674094886011
1106,0.880081037299867
1107,0.872919162981131
1108,0.864977683602601
1109,0.855986338836173
1110,0.84621225647683
1111,0.83601142751147
1112,0.825348088942847
1113,0.814183174003779
1114,0.802903145030634
1115,0.791953727258678
1116,0.781412604771976
1117,0.771325796018401
1118,0.762023885629592
1119,0.753702439909275
1120,0.746051584169222
1121,0.738699008013758
1122,0.731647133890132
1123,0.724911163732428
1124,0.718152784900842
1125,0.71104230645053
1126,0.703546131061761
1127,0.695499989496585
1128,0.686503854749562
1129,0.676886288177151
1130,0.668190455513893
1131,0.661787495433094
1132,0.657394785670907
1133,0.653681635480183
1134,0.649861412196754
1135,0.646009547773566
1136,0.642269463714135
1137,0.63853686713147
1138,0.634829317121762
1139,0.631330871294134
1140,0.628014379583969
1141,0.624723224616153
1142,0.621612067519304
1143,0.619039118776197
1144,0.617082532774291
1145,0.615558734898513
1146,0.61442725411303
1147,0.613740387319131
1148,0.613290058229931
1149,0.612797097895926
1150,0.612348006053816
1151,0.61216528476752
1152,0.612012860358984
1153,0.611299954163826
1154,0.609697148975732
1155,0.607249252867451
1156,0.604013766139044
1157,0.600022657572449
1158,0.595557348887432
1159,0.591020793491704
1160,0.586564253119244
1161,0.582162028056179
1162,0.577957894780312
1163,0.574201297569845
1164,0.570915553961669
1165,0.567967730658399
1166,0.565364258359966
1167,0.563139549656008
1168,0.561050119393818
1169,0.558760234154869
1170,0.556261257603391
1171,0.553779112858381
1172,0.551402631141483
1173,0.549150516535611
1174,0.547280120804911
1175,0.546092421288689
1176,0.545428313563195
1177,0.544707673208368
1178,0.543452069544814
1179,0.54153588259406
1180,0.53912743243454
1181,0.536725084724016
1182,0.535057684295464
1183,0.534492010319435
1184,0.534642592098544
1185,0.534932105858002
1186,0.535346912602495
1187,0.536331551534068
1188,0.538103047951043
1189,0.540533035837275
1190,0.543650573380976
1191,0.547712696272822
1192,0.552873628960227
1193,0.559172819883539
1194,0.566807564509712
1195,0.576041350926453
1196,0.5867936525615
1197,0.598770846487015
1198,0.611873361939041
1199,0.625965665652509
1200,0.640234815305972
1201,0.653216846616784
1202,0.663428119947346
1203,0.669806404550436
1204,0.671989962401729
1205,0.670496531454555
1206,0.666489768222743
1207,0.660802734931978
1208,0.653324227494474
1209,0.643622687277993
1210,0.631609794722221
1211,0.617505068753408
1212,0.601518616995299
1213,0.583986983182058
1214,0.565635320816699
1215,0.547244901425338
1216,0.529274858877407
1217,0.512024950454759
1218,0.495972751484888
1219,0.481609035968572
1220,0.469051978342025
1221,0.458078098881252
1222,0.448471802605735
1223,0.440082775374682
1224,0.432552005040449
1225,0.425450598667172
1226,0.418697856892283
1227,0.412518221922741
1228,0.40699644391569
1229,0.401938522434309
1230,0.397202759953488
1231,0.392792147194861
1232,0.388595117653407
1233,0.384417996447428
1234,0.380302346956622
1235,0.376497766488316
1236,0.373068108914767
1237,0.369872323741511
1238,0.366972320359494
1239,0.364613196650776
1240,0.36271181612643
1241,0.36078450845026
1242,0.358532297169605
1243,0.35613083233685
1244,0.353812243479267
1245,0.351548933716079
1246,0.349300549273753
1247,0.347181211363631
1248,0.345167455598798
1249,0.342974785233314
1250,0.340423080170573
1251,0.337643537531089
1252,0.334761713150879
1253,0.331683047207379
1254,0.328374646565609
1255,0.325047226801913
1256,0.321865432116768
1257,0.318728999728065
1258,0.3154743377388
1259,0.312044994487792
1260,0.308377132145285
1261,0.30444833008767
1262,0.300562274759082
1263,0.297257758095703
1264,0.294764166401844
1265,0.292862302099701
1266,0.291381720844551
1267,0.290420805271958
1268,0.289994544939991
1269,0.289844440468603
1270,0.289782969357937
1271,0.2898887407857
1272,0.290167161082959
1273,0.290408256631124
1274,0.290562519296984
1275,0.290868968624876
1276,0.291470455524028
1277,0.292247830705699
1278,0.29315038270325
1279,0.29429443933973
1280,0.295584691795553
1281,0.296665717587932
1282,0.297413014727202
1283,0.29809082443239
1284,0.298872579897641
1285,0.299621141995243
1286,0.300290931769543
1287,0.301101437499659
1288,0.302141473843637
1289,0.303195444426637
1290,0.304177590904774
1291,0.305326987093971
1292,0.306768291239488
1293,0.30829798360724
1294,0.30978897362168
1295,0.311387593303461
1296,0.313138126464308
1297,0.314818881099264
1298,0.316352516809634
1299,0.317974680446787
1300,0.319789859232051
1301,0.32159218016371
1302,0.32329829508444
1303,0.325127377760271
1304,0.32717800183002
1305,0.329232239640549
1306,0.331182072620828
1307,0.33322789070395
1308,0.335485887195362
