"Wave Length","Absorbance"
450,0.871755425254498
451,0.874745693702902
452,0.87730624890603
453,0.878174034637656
454,0.877967954423691
455,0.879856787980246
456,0.883455578948961
457,0.888974916353047
458,0.890194092223691
459,0.889574720361643
460,0.890557292062075
461,0.891431103533095
462,0.891183901648302
463,0.890383692260501
464,0.889570982187837
465,0.887535042938992
466,0.883551712236975
467,0.878616567865363
468,0.873650653632017
469,0.868310782629886
470,0.862187642800362
471,0.855060002847634
472,0.84555785155598
473,0.832530327384384
474,0.818114835233754
475,0.805351305848819
476,0.793583227255156
477,0.779934379277458
478,0.764075382403398
479,0.748856854303845
480,0.735858327250749
481,0.723257239010598
482,0.709141142976578
483,0.693927350004565
484,0.678359406896598
485,0.661959707191582
486,0.645036412682624
487,0.62934184380657
488,0.61519382410945
489,0.600680994294907
490,0.584745441722873
491,0.568857500912658
492,0.554607041581221
493,0.541892506175208
494,0.530691846285577
495,0.521961662802666
496,0.515442470750726
497,0.509267218938354
498,0.502763447119029
499,0.497147149949127
500,0.492543580937436
501,0.486983447873804
502,0.479870657153835
503,0.473806607571852
504,0.470459580068168
505,0.468084503436544
506,0.465226670579984
507,0.462966423315874
508,0.461992605123965
509,0.460561647655387
510,0.457491776068878
511,0.454240924092389
512,0.452074442705864
513,0.449858112852593
514,0.446331168960528
515,0.442314570706507
516,0.438822640774348
517,0.435032099358635
518,0.430208719195835
519,0.425839183770934
520,0.423401898525908
521,0.422200958812603
522,0.421304969624151
523,0.421107649597126
524,0.42172648922356
525,0.42199176590192
526,0.421529828872354
527,0.421928750102842
528,0.423869772109853
529,0.425657642148169
530,0.42615460557925
531,0.426411910403636
532,0.427351387479028
533,0.428009203625077
534,0.42751084508187
535,0.426843029624271
536,0.427021365678725
537,0.4273031480512
538,0.426736618545714
539,0.425835558783802
540,0.425273381668603
541,0.4247350406204
542,0.424277139080063
543,0.424974264425085
544,0.426970495007913
545,0.428673346467258
546,0.429028337350428
547,0.42886435658861
548,0.428935617634475
549,0.428709074967213
550,0.428207231010295
551,0.428787592820231
552,0.43092980804065
553,0.433328520280491
554,0.435211550382961
555,0.437375690182326
556,0.440074884883688
557,0.442077485204599
558,0.442839134671851
559,0.443438244285996
560,0.444390550699538
561,0.444644378188367
562,0.443760564660754
563,0.44304077188559
564,0.443396689574128
565,0.444063953364912
566,0.444394257999159
567,0.445002133486733
568,0.446111038523559
569,0.446785877731105
570,0.44683838470562
571,0.447424895011737
572,0.448792019039326
573,0.449563167085186
574,0.449056216747273
575,0.448377500251653
576,0.448497994261639
577,0.448934522982833
578,0.449274450064376
579,0.450070041658049
580,0.451347188500931
581,0.452136074033052
582,0.452280944424143
583,0.45285815589027
584,0.454131305045597
585,0.455047309824992
586,0.455316281262697
587,0.45600259016097
588,0.457421936164472
589,0.458472062483184
590,0.458685049500085
591,0.459143143925324
592,0.460621195458706
593,0.462508421991376
594,0.464338190210687
595,0.466502535254624
596,0.468763275396087
597,0.47001205616925
598,0.470055885750004
599,0.469942299796637
600,0.470004004482203
601,0.469264856121711
602,0.467332292835569
603,0.465080514379632
604,0.462993700939535
605,0.460584237422676
606,0.457800529258722
607,0.455234649235267
608,0.452585631096771
609,0.448846166703405
610,0.44423368677462
611,0.440016322682986
612,0.436540809566621
613,0.432908277459546
614,0.428868624176031
615,0.425653577967815
616,0.424508882755117
617,0.425710919546882
618,0.429092531873737
619,0.433830985378323
620,0.437649706780221
621,0.438324291895091
622,0.43622901760381
623,0.43369617298299
624,0.431502530965296
625,0.427519169367997
626,0.419426701984781
627,0.407405669429786
628,0.39358525545864
629,0.380336766627717
630,0.369632119599909
631,0.362424034773965
632,0.358087897558725
633,0.355113361901371
634,0.352729270447567
635,0.351243015095439
636,0.350729401688517
637,0.350617353614026
638,0.350847753491231
639,0.352000471612511
640,0.3542316189654
641,0.357458610557158
642,0.361974314402337
643,0.367395909007297
644,0.371267846714996
645,0.370371533585517
646,0.364027146687055
647,0.354966527034906
648,0.346532800890023
649,0.340398668455306
650,0.336752189193298
651,0.334879724160843
652,0.333668040654051
653,0.332331393244323
654,0.330894908056677
655,0.329757269301027
656,0.328802776234025
657,0.327665815232902
658,0.326541966480783
659,0.325850871311147
660,0.3254961152661
661,0.325523237402312
662,0.325819355627365
663,0.325400439454213
664,0.32260665519137
665,0.315898721041169
666,0.305607216147558
667,0.293927256966396
668,0.28767354644692
669,0.295439437187883
670,0.30981479939413
671,0.32129551120427
672,0.329699177741416
673,0.335643473794129
674,0.339289616779731
675,0.341543578475246
676,0.34387852328523
677,0.346138801135464
678,0.347343453274785
679,0.347674043534098
680,0.347704636959608
681,0.347417851424577
682,0.346535401507219
683,0.345850114269007
684,0.346410496039214
685,0.347679231367668
686,0.348617311135632
687,0.349623968600053
688,0.351812089366372
689,0.355072765426226
690,0.358707811389901
691,0.363038678958853
692,0.368647905746232
693,0.375269564041125
694,0.382516848816396
695,0.390893372794496
696,0.401113915399536
697,0.412761208834348
698,0.424998962569709
699,0.437717255595388
700,0.450546209723257
701,0.461824410622305
702,0.469437758751419
703,0.472462937990394
704,0.471662970673267
705,0.468914053476731
706,0.46722951925693
707,0.470388608167758
708,0.481185225668358
709,0.499519851674705
710,0.520943242368293
711,0.53637241821334
712,0.534890337677286
713,0.510210163320095
714,0.466650203958276
715,0.417255574443038
716,0.374622807569909
717,0.343999066507554
718,0.324202196200636
719,0.312378523789233
720,0.306307982193951
721,0.304008933057348
722,0.30382460708619
723,0.305042742467149
724,0.307291483432357
725,0.309753571134967
726,0.31180174487726
727,0.313723914240394
728,0.315894831685702
729,0.317877911692936
730,0.319246394482234
731,0.320507781938919
732,0.322329958184354
733,0.324392860276478
734,0.326063538591457
735,0.327643711998855
736,0.329693119915146
737,0.331832407465699
738,0.333383787030943
739,0.33448805804618
740,0.335499612094482
741,0.336002459707804
742,0.335519062903542
743,0.334541693374403
744,0.333855005358089
745,0.33346912567651
746,0.333093573520809
747,0.332982811170408
748,0.333438719715389
749,0.334176687095
750,0.335013776411879
751,0.336438433054843
752,0.338686607946223
753,0.341045806210674
754,0.342906719643201
755,0.344692546304428
756,0.346883698533439
757,0.348931568849335
758,0.350143125723453
759,0.350928942043325
760,0.35218043048819
761,0.354027135973458
762,0.356119401948218
763,0.35853045665781
764,0.361474853561893
765,0.364692318852275
766,0.367963408599885
767,0.371728918765329
768,0.376421856062488
769,0.381664880288975
770,0.386750374512897
771,0.391326556450511
772,0.395037633672818
773,0.397281376536927
774,0.398082221119727
775,0.398539250105615
776,0.399686765058584
777,0.401481667650192
778,0.403458936871006
779,0.405613671580472
780,0.407982530827149
781,0.41013757887177
782,0.411821934992313
783,0.413365715456712
784,0.414809385446354
785,0.41540156605105
786,0.414696349469063
787,0.413401989934605
788,0.412404137019319
789,0.411674347979179
790,0.410841065404853
791,0.410033458111448
792,0.409362970873292
793,0.408338415895041
794,0.406654195040883
795,0.404892550514006
796,0.403641620360456
797,0.402572653790105
798,0.40114621626203
799,0.399533742900965
800,0.398089064294936
801,0.39665999788553
802,0.395234794758819
803,0.394521770973025
804,0.394975273349572
805,0.395805895764999
806,0.395757089221308
807,0.394392751299529
808,0.392028446787456
809,0.389054012801631
810,0.386013428681985
811,0.38372267430987
812,0.38253784018654
813,0.381907100617594
814,0.381168585940331
815,0.380303287709331
816,0.379488092029541
817,0.378594401887756
818,0.377659135396033
819,0.377202458281342
820,0.377508753293847
821,0.378164138813141
822,0.378841338768278
823,0.379949841531689
824,0.382006416491092
825,0.38492420552182
826,0.388232445833018
827,0.391174019716891
828,0.39227674566179
829,0.38993742942416
830,0.384164281099107
831,0.377027113584992
832,0.370823066498275
833,0.36642245884326
834,0.363654240137523
835,0.362366036970601
836,0.362432911338278
837,0.363407406332721
838,0.364904008640413
839,0.366956109965214
840,0.369605011701821
841,0.372636692074053
842,0.376148760893875
843,0.380843145986174
844,0.387258034485221
845,0.394902450548951
846,0.402195227025781
847,0.40697658222845
848,0.407562578477225
849,0.404439424649891
850,0.400853141459718
851,0.400500097828943
852,0.404395258574903
853,0.410737678762845
854,0.417714287845157
855,0.425201969368936
856,0.433583696517677
857,0.442597798906079
858,0.45211644208899
859,0.462762391051813
860,0.474948120862695
861,0.488243045089094
862,0.502363394437538
863,0.517877493893657
864,0.535276463806258
865,0.554310292998951
866,0.574812523743815
867,0.597186064416598
868,0.621237164517983
869,0.645168953065496
870,0.666206949692952
871,0.681582823433557
872,0.688848019480476
873,0.686345558237754
874,0.674227505108623
875,0.654293966456483
876,0.628571841611346
877,0.598627913905908
878,0.566123147942446
879,0.533291498120593
880,0.502139091598172
881,0.473405864076987
882,0.446411441414728
883,0.419561509530126
884,0.391353846063557
885,0.361902934548168
886,0.333901233200355
887,0.311319308098763
888,0.29665259115053
889,0.289547677953422
890,0.287994811894642
891,0.289967189000666
892,0.293672604986783
893,0.29758780096589
894,0.301077926181901
895,0.304459420778024
896,0.307979083920659
897,0.311220544991954
898,0.313821946862694
899,0.31598072861425
900,0.317877604602499
901,0.31932673138905
902,0.320384901103523
903,0.321582576938381
904,0.323177037628288
905,0.324856170360467
906,0.32649767971168
907,0.328513121888284
908,0.331103704384733
909,0.333929313589969
910,0.336855389280735
911,0.340293030746709
912,0.344398837183619
913,0.348665542274742
914,0.352671883028697
915,0.356539183016835
916,0.360307247015445
917,0.36357921365678
918,0.366167162730451
919,0.368416008217571
920,0.370543956577953
921,0.372274369765034
922,0.373439641475
923,0.37430245081438
924,0.37501781335968
925,0.375459695429096
926,0.375859670750832
927,0.376900795314502
928,0.37884114174069
929,0.381195060900227
930,0.383589780306491
931,0.386291127514872
932,0.389550729726483
933,0.393087228486793
934,0.396496394761189
935,0.399516894540141
936,0.401626329038457
937,0.402155449921949
938,0.401210479969972
939,0.399865857744187
940,0.399073668778862
941,0.398898721493806
942,0.399068209318365
943,0.399580907044359
944,0.400414461790631
945,0.401262586782612
946,0.402007719866678
947,0.402973026948567
948,0.404376137233019
949,0.405993676971085
950,0.407610231127748
951,0.409314012586413
952,0.411137333407309
953,0.412917838198483
954,0.414707899006982
955,0.416766032667406
956,0.418978619023353
957,0.420880132348009
958,0.422428189396831
959,0.424161938469882
960,0.426373659024751
961,0.428733601363336
962,0.430934471284365
963,0.433115474125919
964,0.435448580285864
965,0.437902535158811
966,0.440602187834122
967,0.443767609569619
968,0.447042298334089
969,0.449518701187478
970,0.450763305070367
971,0.451308397068307
972,0.451933718990777
973,0.452963491870307
974,0.454426085794082
975,0.456311187247372
976,0.458399952244337
977,0.46035729909626
978,0.462230839036906
979,0.464424244430315
980,0.467057546519779
981,0.469829041426806
982,0.472583274623098
983,0.475466638986717
984,0.47844923643205
985,0.481277827883923
986,0.483980793677095
987,0.486842630741517
988,0.48981422896076
989,0.492601513045424
990,0.495406874423017
991,0.498887869466707
992,0.503233254410844
993,0.507916845918803
994,0.512535258716616
995,0.517268691048464
996,0.522373114869239
997,0.527860071061316
998,0.533791577237674
999,0.540279215957232
1000,0.547099513297839
1001,0.553930005137598
1002,0.561046344540342
1003,0.569066378860382
1004,0.577941446453557
1005,0.586910302785825
1006,0.595519859276795
1007,0.603942444221975
1008,0.612218306736388
1009,0.620036878333006
1010,0.627407856003731
1011,0.634752095962567
1012,0.642115649883359
1013,0.649062137077027
1014,0.655519871463575
1015,0.661983373106731
1016,0.668677403942455
1017,0.675237447720906
1018,0.681440927637117
1019,0.687623205367657
1020,0.694270752846645
1021,0.701774666528565
1022,0.710635223609381
1023,0.721286784575874
1024,0.733694281802267
1025,0.747627803273985
1026,0.762912466897318
1027,0.778383291112418
1028,0.790863810892875
1029,0.796725846165863
1030,0.795084468051955
1031,0.788890014956196
1032,0.782833410190393
1033,0.78072107857416
1034,0.784313960073115
1035,0.793187595593706
1036,0.805046882568201
1037,0.816954002305684
1038,0.827095124924567
1039,0.835379312661635
1040,0.842582443168802
1041,0.849453664772207
1042,0.856484476377214
1043,0.863768560020769
1044,0.870932290337058
1045,0.877627067869341
1046,0.884019532578715
1047,0.890416509497482
1048,0.896672400666432
1049,0.902525726051067
1050,0.908176984374958
1051,0.913896957533399
1052,0.919437448989191
1053,0.924552461161326
1054,0.929730570858357
1055,0.935602442776288
1056,0.941934410768835
1057,0.94790265134145
1058,0.9530412373258
1059,0.95731581656841
1060,0.960678714866326
1061,0.963328210617686
1062,0.966096117446214
1063,0.969792325664545
1064,0.974294881275034
1065,0.978740952137025
1066,0.982301028115764
1067,0.984433780753339
1068,0.985047620794155
1069,0.985056581657793
1070,0.986107383033
1071,0.988959490536061
1072,0.99258581944971
1073,0.99550923953368
1074,0.997473412489096
1075,0.999014693991114
1076,1
1077,0.999618940984779
1078,0.997477893660505
1079,0.993914095003266
1080,0.989491484297305
1081,0.984757060024861
1082,0.980147422436361
1083,0.975566480524224
1084,0.970506020807125
1085,0.96500494030497
1086,0.959886255024268
1087,0.955577544067541
1088,0.951390158518199
1089,0.946607439564901
1090,0.941620777546582
1091,0.937270111095988
1092,0.933640135250118
1093,0.930299331387359
1094,0.92718816377232
1095,0.924441422296209
1096,0.921733486582538
1097,0.918590821419116
1098,0.915059112612852
1099,0.911400275664148
1100,0.907484535077811
1101,0.903048009766859
1102,0.898202267282141
1103,0.893072192365204
1104,0.887344052630428
1105,0.880741264550318
1106,0.873478691102089
1107,0.865796656437266
1108,0.857474983145843
1109,0.848319230823314
1110,0.838669956048865
1111,0.828861313392667
1112,0.818707930263194
1113,0.808051838438617
1114,0.797328168339231
1115,0.787059135063166
1116,0.777221619006417
1117,0.767661576865033
1118,0.758668998175681
1119,0.750591581536272
1120,0.743259720146257
1121,0.736328185240161
1122,0.729792720759067
1123,0.723655693456458
1124,0.717485756350254
1125,0.710788863113283
1126,0.703366905755388
1127,0.694898591026947
1128,0.684904022542744
1129,0.673945381299671
1130,0.664158898936671
1131,0.657398326850101
1132,0.653291552068114
1133,0.650038957805937
1134,0.646527876987766
1135,0.642797716385854
1136,0.639017781286867
1137,0.635079635235897
1138,0.631107975963145
1139,0.627492998272771
1140,0.624282045747496
1141,0.62119613269521
1142,0.618250206256685
1143,0.615714357692937
1144,0.613510351279214
1145,0.611285592430565
1146,0.6090779945804
1147,0.60728581954415
1148,0.605979260313015
1149,0.604856448133154
1150,0.603845627166214
1151,0.603122033950265
1152,0.602509013809394
1153,0.601458081134439
1154,0.599649552399978
1155,0.597128496577298
1156,0.593920189389444
1157,0.59002497819832
1158,0.585764564275676
1159,0.581597594267316
1160,0.577594060997296
1161,0.573516627470383
1162,0.569352726735802
1163,0.5653491459488
1164,0.56162772153755
1165,0.558233683662645
1166,0.555430366348644
1167,0.553425812417916
1168,0.551860572761583
1169,0.550091385408564
1170,0.547951402666151
1171,0.545767096125204
1172,0.543737099726621
1173,0.541806034692206
1174,0.540094087893162
1175,0.538879814867328
1176,0.538069158695708
1177,0.537109574674051
1178,0.535486192254508
1179,0.533019800300808
1180,0.529861198373349
1181,0.526608564551453
1182,0.524220380979788
1183,0.52324865804019
1184,0.523255584971657
1185,0.52343162590312
1186,0.523585535111877
1187,0.524114531265221
1188,0.525203343003714
1189,0.526667316278245
1190,0.528545772272155
1191,0.53118546455708
1192,0.534775835199114
1193,0.539281424054168
1194,0.544809693450757
1195,0.551584124645178
1196,0.559530334121802
1197,0.568433391105994
1198,0.578380606842479
1199,0.58943595087885
1200,0.60085920215639
1201,0.611188277313873
1202,0.619071063876493
1203,0.62369607573778
1204,0.624802186455536
1205,0.622777380366543
1206,0.618661711465609
1207,0.613381406172848
1208,0.607022689665451
1209,0.59923401669041
1210,0.58990817969749
1211,0.579196187848776
1212,0.567129165772391
1213,0.553771652487053
1214,0.539639981546606
1215,0.525443351488697
1216,0.511578844586163
1217,0.498238602239548
1218,0.485837393865296
1219,0.474858204861499
1220,0.465370224717212
1221,0.457088914307503
1222,0.449841440966134
1223,0.443561681615167
1224,0.437879868982133
1225,0.432316150704538
1226,0.42686931105976
1227,0.421906254979746
1228,0.41746828248117
1229,0.413155465251336
1230,0.408737845937186
1231,0.404361754329821
1232,0.4001032769312
1233,0.395830282466338
1234,0.391566264254851
1235,0.38753151474843
1236,0.383760274053003
1237,0.380161260661617
1238,0.377001207501229
1239,0.37473404365288
1240,0.373208897281708
1241,0.371591760733825
1242,0.36928367364229
1243,0.366458234475047
1244,0.363562094947391
1245,0.360809672404431
1246,0.358347161520845
1247,0.356377053378529
1248,0.354799087321716
1249,0.353112161862656
1250,0.350933688631042
1251,0.348312478514268
1252,0.3453910535653
1253,0.342150829255193
1254,0.338671815735748
1255,0.335253516004582
1256,0.332067783468917
1257,0.328994766067046
1258,0.325916296569933
1259,0.322833261046186
1260,0.319617584631497
1261,0.316094404703249
1262,0.312500745865611
1263,0.309425876089916
1264,0.307138231279618
1265,0.305394101552433
1266,0.304000537812718
1267,0.303061725483561
1268,0.302589111802093
1269,0.302342180312838
1270,0.302209452618825
1271,0.302311734964319
1272,0.302575241630306
1273,0.302693145875166
1274,0.302658110117714
1275,0.302835982054605
1276,0.303395652903663
1277,0.30412751533246
1278,0.304926205911393
1279,0.30594695017369
1280,0.307132214419373
1281,0.308116669922141
1282,0.308787960784681
1283,0.309461713880635
1284,0.310325623375809
1285,0.311196243572156
1286,0.311976775356665
1287,0.312848561231606
1288,0.313850440110014
1289,0.314760668657881
1290,0.315583241998365
1291,0.316651881818549
1292,0.318074314670277
1293,0.319569554723084
1294,0.321004264540849
1295,0.322577453530386
1296,0.324326526215308
1297,0.325959715617286
1298,0.327372474118422
1299,0.328836591511842
1300,0.330495867307012
1301,0.332178483185065
1302,0.333857001556181
1303,0.335774521663069
1304,0.337952886466898
1305,0.340070126935947
1306,0.342001647017441
1307,0.344002935556782
1308,0.34622000754644
1309,0.348502082192498
