"Wave Length","Absorbance"
450,0.798997665250159
451,0.804218096847678
452,0.806831018996825
453,0.808370460333689
454,0.811968209850393
455,0.816317418557904
456,0.818283094020202
457,0.817579952714542
458,0.817009795651093
459,0.817423866776495
460,0.817367032099699
461,0.817192595442306
462,0.81832385116355
463,0.81997905491471
464,0.820054950498736
465,0.818363357668138
466,0.816029677822772
467,0.812852584063049
468,0.808064764536857
469,0.802577631948584
470,0.797310876487306
471,0.79048840999085
472,0.779759380382481
473,0.766574616233717
474,0.754349209533458
475,0.743105138095982
476,0.730797480987858
477,0.717384348605347
478,0.704325570788301
479,0.691808056868845
480,0.678875329634761
481,0.665462341554792
482,0.652113585212353
483,0.638349211386646
484,0.62337771191631
485,0.608018039133634
486,0.593805396266325
487,0.580658776785425
488,0.567429190045697
489,0.553880101788151
490,0.540537729894544
491,0.527358896109382
492,0.514127131002148
493,0.501862517321484
494,0.491948019749394
495,0.484009402617325
496,0.47647152497698
497,0.468886400368924
498,0.462097801089443
499,0.456243940067168
500,0.450275198590192
501,0.443829807783774
502,0.438244229326954
503,0.434805090181623
504,0.432976971359818
505,0.43147447256498
506,0.42981598760207
507,0.427923411105545
508,0.425502240100193
509,0.422575212650123
510,0.419749633417194
511,0.417480715144711
512,0.415571951160834
513,0.413545899690221
514,0.410983743868757
515,0.407346705908911
516,0.402294246256476
517,0.396587283553599
518,0.391901292823637
519,0.389144474513156
520,0.387759608297247
521,0.38694094415975
522,0.386430699900746
523,0.386004174601755
524,0.385277027129426
525,0.384377400302855
526,0.384091235985078
527,0.384779909785846
528,0.385794949575882
529,0.386523613792534
530,0.387083372108955
531,0.38768599946891
532,0.388096379094578
533,0.388079609857245
534,0.38790228228268
535,0.387942754501335
536,0.388211085301516
537,0.388524526335587
538,0.388738269419409
539,0.388634837770066
540,0.388111276978747
541,0.387591594905641
542,0.387709675330258
543,0.388424405943042
544,0.3890410736072
545,0.389237486402264
546,0.389423950591582
547,0.389936407803885
548,0.39056507066443
549,0.391171957115996
550,0.392035313947183
551,0.39328095623956
552,0.394653084608048
553,0.396112865919602
554,0.397997764971076
555,0.40034654558188
556,0.402728326202148
557,0.404966960934135
558,0.407285904716356
559,0.409479783871242
560,0.41078940727232
561,0.410935812991562
562,0.410549740048681
563,0.41025846118745
564,0.410080254304709
565,0.40994969572601
566,0.41011428092136
567,0.410727206440644
568,0.411642658526196
569,0.412863172884036
570,0.414586694293804
571,0.41651223346026
572,0.417792216838736
573,0.418000211117087
574,0.417537390753447
575,0.417023135975956
576,0.416865599201654
577,0.417398166828009
578,0.418740021997921
579,0.420421407522241
580,0.421722714749905
581,0.422510289312272
582,0.423226567413435
583,0.424039839078412
584,0.424713478289453
585,0.425322213703192
586,0.426301955424817
587,0.427659353169942
588,0.428914198690065
589,0.429955525079624
590,0.43120652175369
591,0.432806925689117
592,0.434413929076648
593,0.435965552165841
594,0.4378074882835
595,0.43987451135195
596,0.441602263901805
597,0.442809305987696
598,0.443814110518342
599,0.444550428242679
600,0.444418095542167
601,0.443273812993637
602,0.441666174929684
603,0.43986280656051
604,0.437600464691454
605,0.434961025956316
606,0.432483199863426
607,0.430110721937339
608,0.427021300360045
609,0.423002811625319
610,0.418912762038209
611,0.415277645654982
612,0.41178492728378
613,0.408251825682301
614,0.40512015871419
615,0.402876032762425
616,0.401867714646218
617,0.402847575759656
618,0.406451840203937
619,0.411521676515458
620,0.415230545073745
621,0.415818483289804
622,0.414199363418902
623,0.41218163349537
624,0.409837779298247
625,0.40531842737592
626,0.396894125190477
627,0.38473245566166
628,0.370929002386236
629,0.358219853623733
630,0.348411193486614
631,0.341476551612809
632,0.336365022845688
633,0.332420096087865
634,0.329661967370888
635,0.328092485804309
636,0.327393657027351
637,0.327400438629973
638,0.328273979349268
639,0.329894173364646
640,0.331887141800671
641,0.334611759061488
642,0.338840410362333
643,0.343993193598218
644,0.34760722918136
645,0.347084369627
646,0.341822065021934
647,0.333595369501626
648,0.3251941721129
649,0.318902562035021
650,0.315345045075387
651,0.313237515374928
652,0.311127476935498
653,0.308987378144165
654,0.307503323077173
655,0.306668075756971
656,0.305833117887794
657,0.304868372629778
658,0.304189536306586
659,0.303799318285109
660,0.303385719179586
661,0.303350437934903
662,0.303781995590977
663,0.303408296958728
664,0.300636857655405
665,0.294472569556674
666,0.285326939670527
667,0.274636997525216
668,0.268094137759267
669,0.274469665287476
670,0.288376704832711
671,0.300068399413427
672,0.308227917188317
673,0.313841077183908
674,0.317566836031077
675,0.319904110235233
676,0.321788886119808
677,0.323635738427509
678,0.325091666422341
679,0.32591206396286
680,0.326114678059055
681,0.325885625134781
682,0.325141498332657
683,0.324159076919246
684,0.323800450127444
685,0.324466372282562
686,0.325796211433674
687,0.327431310914665
688,0.32955025335373
689,0.33241943869172
690,0.336160925591289
691,0.340983597722622
692,0.347033061710115
693,0.354246793159678
694,0.362457587129877
695,0.371677653655778
696,0.382238653240209
697,0.39423786420059
698,0.407330599458812
699,0.420961273387191
700,0.434258154319434
701,0.445963071920822
702,0.454518468157323
703,0.458773064242525
704,0.459090983998786
705,0.457623351985025
706,0.457720211187479
707,0.462851960392475
708,0.475536052548465
709,0.496007662104911
710,0.519827744728503
711,0.536747034385668
712,0.534516757265751
713,0.506857812159546
714,0.459151281739815
715,0.405306770128902
716,0.358509168505129
717,0.32475517826164
718,0.303248591893961
719,0.290621547992284
720,0.283962492277983
721,0.281225631462065
722,0.280845990991271
723,0.281777216814313
724,0.283456145755139
725,0.285496721679347
726,0.287615627284326
727,0.289762467579411
728,0.291947439870153
729,0.293942120791072
730,0.2954835062111
731,0.296706724010104
732,0.298082608451532
733,0.299787535700093
734,0.301570495386797
735,0.303364539025159
736,0.305368420421508
737,0.307503427361757
738,0.309344967317586
739,0.310648838796494
740,0.311512325949422
741,0.311988774090077
742,0.311963299908736
743,0.311479863988764
744,0.310866326851068
745,0.310445496365643
746,0.310350479831872
747,0.310643687498076
748,0.311374459793603
749,0.312483239504795
750,0.313837667082225
751,0.31536515248784
752,0.317021262478594
753,0.318715868690087
754,0.320427967426063
755,0.322296246682806
756,0.324405069681809
757,0.326552383528589
758,0.328449727726008
759,0.33009679088618
760,0.331751385643502
761,0.333604573425709
762,0.335698934476207
763,0.338091779960526
764,0.340861174765583
765,0.343975903632919
766,0.347374197813252
767,0.351167778334821
768,0.355583880857054
769,0.360667223467997
770,0.366094406630946
771,0.37121930492507
772,0.375280862872606
773,0.377820341750213
774,0.379114597585168
775,0.380070103839143
776,0.381484082364849
777,0.383466322140738
778,0.385680234674058
779,0.387924807507689
780,0.390218537770025
781,0.39247328192744
782,0.394439641572885
783,0.395958196819056
784,0.396993224304291
785,0.397434132325554
786,0.39713804766094
787,0.396219495806814
788,0.395075052027787
789,0.394032454918077
790,0.393120503727361
791,0.392209667594132
792,0.391201607999657
793,0.390036780740843
794,0.388684447314714
795,0.387214226903201
796,0.385767896284621
797,0.384404283881222
798,0.383063496745892
799,0.381699126863016
800,0.380344852026159
801,0.379076577612816
802,0.378069254125545
803,0.377660145368116
804,0.378085382670806
805,0.379014055865423
806,0.379519692123853
807,0.37872303323959
808,0.376488150479767
809,0.373467663787057
810,0.370566548935638
811,0.368404553703107
812,0.367114515401798
813,0.366428040238685
814,0.3659289736802
815,0.365354037190872
816,0.364717298883615
817,0.364159418291083
818,0.363738407795699
819,0.363443620802901
820,0.363352422398268
821,0.363639081555757
822,0.364446991234243
823,0.365894734367589
824,0.368212836977587
825,0.371603192182597
826,0.375678218070796
827,0.379081069340228
828,0.380008580694412
829,0.377406815966133
830,0.371772388131212
831,0.364839775266924
832,0.358506200153892
833,0.353933222115386
834,0.351364036304684
835,0.35051218457655
836,0.350970617366468
837,0.352329758066508
838,0.354198758097502
839,0.356377449392388
840,0.359039268981648
841,0.362552064043047
842,0.367125679688801
843,0.372828307537618
844,0.379859562555772
845,0.388199723557742
846,0.396530445251384
847,0.402072072055957
848,0.402603462135623
849,0.399060888760059
850,0.395413302828796
851,0.395413744104425
852,0.399840339762182
853,0.406958185159372
854,0.414954045760354
855,0.423319068707822
856,0.432292966476644
857,0.442069430856297
858,0.452810803982146
859,0.464764402864532
860,0.47804913939877
861,0.492576027176969
862,0.508318883700027
863,0.525427476574143
864,0.544004919502445
865,0.564120402153386
866,0.586027450515365
867,0.609978404470706
868,0.635523014654647
869,0.661011209749188
870,0.68367324325542
871,0.700147515992859
872,0.707479901660166
873,0.704198783256772
874,0.690759290340768
875,0.668838665387919
876,0.64045405679939
877,0.607673525332452
878,0.572505342143296
879,0.536977471295445
880,0.503008259139128
881,0.471723756348274
882,0.442585350245796
883,0.413526368268671
884,0.382754493467635
885,0.350781111935587
886,0.320705293368744
887,0.296378421562887
888,0.280165864164048
889,0.271960293294698
890,0.269848488143072
891,0.271439286542736
892,0.274713473165842
893,0.278418573828321
894,0.282081530699392
895,0.28568525895471
896,0.289230802654085
897,0.292555715751137
898,0.295513655159259
899,0.298070075875907
900,0.300198671096011
901,0.301874347633004
902,0.303223791758947
903,0.304504543771187
904,0.305899039933894
905,0.307473668372652
906,0.309336208986812
907,0.311648069966052
908,0.314444204262456
909,0.317623715330199
910,0.321146591666421
911,0.325059332754339
912,0.329274258868861
913,0.333533179571207
914,0.337643293730265
915,0.341569594596771
916,0.34525772117176
917,0.348566641381276
918,0.351443470960162
919,0.353984241135959
920,0.356251731571479
921,0.358159960906268
922,0.35961576449336
923,0.360656950209257
924,0.361418160659891
925,0.362082906713492
926,0.362895046185394
927,0.364100437016743
928,0.365811055092835
929,0.367971279768047
930,0.370460809115002
931,0.373202364003046
932,0.376214679175247
933,0.379599571896025
934,0.383327191641141
935,0.386888624258268
936,0.389344820043964
937,0.39003568592623
938,0.389231464097019
939,0.387900866063277
940,0.386881048595977
941,0.386428832368635
942,0.386458170988798
943,0.386860539539933
944,0.387527311655178
945,0.388332124620385
946,0.389249672147091
947,0.390366482745329
948,0.39170578824887
949,0.39318058380331
950,0.394753211160281
951,0.396495243749693
952,0.39843561612347
953,0.400480596843526
954,0.402545667287476
955,0.404642104112508
956,0.406791061624638
957,0.408966380838169
958,0.411156014516109
959,0.413384285982568
960,0.415642590311625
961,0.417890096958756
962,0.420136918359006
963,0.422453290035962
964,0.424921675878539
965,0.427650154714721
966,0.430752441046932
967,0.434147737741157
968,0.43739327822536
969,0.439897341223067
970,0.441384773278665
971,0.442106269456202
972,0.442623332694766
973,0.443442135039627
974,0.444779545994815
975,0.446551012047888
976,0.448538875556356
977,0.450623524888854
978,0.452858113323372
979,0.455334312759334
980,0.458056859424075
981,0.460968248104151
982,0.463996957022716
983,0.467032201882769
984,0.469979154695117
985,0.472893813715287
986,0.475928209788749
987,0.479092933170887
988,0.482236537700892
989,0.485335959583827
990,0.488619457839058
991,0.492308300256849
992,0.496434555698531
993,0.500968565554691
994,0.505859719385208
995,0.510835086343672
996,0.515485164796271
997,0.519846765873447
998,0.524607656685404
999,0.530425260588628
1000,0.537249546440987
1001,0.544573413659993
1002,0.552156984268619
1003,0.560127184778903
1004,0.568536928015288
1005,0.577218476002576
1006,0.585985390350208
1007,0.594678629590696
1008,0.603084571759677
1009,0.611085459504617
1010,0.618793491568089
1011,0.626319818747827
1012,0.633553545392761
1013,0.640387066844729
1014,0.646954305244946
1015,0.653404383478468
1016,0.659682117626136
1017,0.665780007835868
1018,0.671962418932368
1019,0.678490411203352
1020,0.685425415098461
1021,0.692956887449924
1022,0.701633400133893
1023,0.711983787907553
1024,0.724202129486785
1025,0.738388643640015
1026,0.754393654938333
1027,0.770670945134092
1028,0.783700576764775
1029,0.789755398273215
1030,0.787785778946192
1031,0.780521624390123
1032,0.7728816404539
1033,0.769321733221801
1034,0.771923924750276
1035,0.780015650031073
1036,0.79118972548597
1037,0.802885261976477
1038,0.813478456993086
1039,0.822361197548216
1040,0.829648899949261
1041,0.836000014776708
1042,0.84224093828874
1043,0.848778942287932
1044,0.855493599477202
1045,0.862216604311842
1046,0.868946634057403
1047,0.875552439178587
1048,0.881756696841022
1049,0.887616214832491
1050,0.893512562763042
1051,0.899494995862674
1052,0.905200949043197
1053,0.910643378366626
1054,0.916457592322553
1055,0.923041394226626
1056,0.929967827096968
1057,0.936492021118801
1058,0.94215863078358
1059,0.946770904832865
1060,0.950357354640347
1061,0.953466326113906
1062,0.95697797116562
1063,0.961286716043382
1064,0.965998868835154
1065,0.97046972815245
1066,0.974185548857735
1067,0.976720686491515
1068,0.978088427937673
1069,0.979260718169186
1070,0.981552637084538
1071,0.985237430654698
1072,0.989365454021355
1073,0.993033622783461
1074,0.996115997032993
1075,0.99859027925745
1076,1
1077,0.999990893532195
1078,0.998634848480459
1079,0.995959737495899
1080,0.991861066463194
1081,0.986697399069816
1082,0.981301514779784
1083,0.976094202524685
1084,0.970859872083085
1085,0.965541141958664
1086,0.960541946071884
1087,0.956087237761728
1088,0.951946894063228
1089,0.947993499160891
1090,0.944400486035296
1091,0.941125033639153
1092,0.937824975582465
1093,0.934482615307987
1094,0.93147691976469
1095,0.928854647916813
1096,0.926149699206243
1097,0.923101284451582
1098,0.91991645374698
1099,0.916643820508008
1100,0.912949509162252
1101,0.908701851140009
1102,0.904159444251422
1103,0.899358741652693
1104,0.89390477717407
1105,0.887608788891727
1106,0.880707953241662
1107,0.873299117222629
1108,0.865133425015543
1109,0.856119368723541
1110,0.846523301340907
1111,0.836486163247747
1112,0.825930008910012
1113,0.815047069823568
1114,0.804334481395353
1115,0.794053525453219
1116,0.784132188102638
1117,0.774664051286216
1118,0.765973948385293
1119,0.758124324059383
1120,0.750834788397774
1121,0.743956302342261
1122,0.737523172706982
1123,0.731288370415503
1124,0.724747012354242
1125,0.717669040302456
1126,0.710037398661198
1127,0.701465821869021
1128,0.691501632206428
1129,0.680868814062471
1130,0.67157253957017
1131,0.665055818498923
1132,0.660835310507115
1133,0.65740510522591
1134,0.653829323947618
1135,0.650038977609353
1136,0.646212026852033
1137,0.642458693809677
1138,0.638885382178282
1139,0.635532019618469
1140,0.632280968569931
1141,0.629090722140513
1142,0.626185112449128
1143,0.623773767912324
1144,0.621783674259772
1145,0.620069995525108
1146,0.618690060893388
1147,0.617726701731031
1148,0.617028022524531
1149,0.616400005934631
1150,0.615872694971701
1151,0.615510726008739
1152,0.615094790958846
1153,0.614231974438132
1154,0.612645580507591
1155,0.610208961821693
1156,0.606896568482128
1157,0.602877607003923
1158,0.598518960853319
1159,0.594105352726781
1160,0.589690136857304
1161,0.585308130412973
1162,0.581132209133956
1163,0.577315476422491
1164,0.573875114956258
1165,0.570848506747061
1166,0.56833742596912
1167,0.5662623382213
1168,0.564276942785713
1169,0.562114598272744
1170,0.55984689493892
1171,0.557657059324468
1172,0.555591150806107
1173,0.55369772817576
1174,0.552198649579209
1175,0.551265148022558
1176,0.55070462583094
1177,0.550028847393174
1178,0.548747869118058
1179,0.546582930947682
1180,0.543695452939404
1181,0.540842534544685
1182,0.538979801610074
1183,0.538441266829743
1184,0.538714988647279
1185,0.53916629262055
1186,0.539691516752372
1187,0.540558716813212
1188,0.541915073510842
1189,0.543770503131765
1190,0.546293311976455
1191,0.549716059619646
1192,0.554111444726562
1193,0.559494885402081
1194,0.566032960990141
1195,0.573933362082328
1196,0.583172015772967
1197,0.59362578105925
1198,0.605284491419098
1199,0.617979659601685
1200,0.63092071540342
1201,0.642739715862946
1202,0.65192174333094
1203,0.657244020491177
1204,0.658341859434004
1205,0.655997833444036
1206,0.651631806528667
1207,0.646120825082317
1208,0.639301659508509
1209,0.630711214186166
1210,0.620210555782935
1211,0.607927683024841
1212,0.594035412829808
1213,0.578879098407293
1214,0.563083758144514
1215,0.547236779711635
1216,0.531710827128343
1217,0.516882943888725
1218,0.503282129681566
1219,0.491317928296337
1220,0.481021068797901
1221,0.47215083205894
1222,0.46443872518158
1223,0.457619450986681
1224,0.451331423276397
1225,0.44530176641046
1226,0.439561285575143
1227,0.434286424825444
1228,0.429493966606465
1229,0.425015230336964
1230,0.420718919040698
1231,0.416545146195867
1232,0.41238593636474
1233,0.408175596866171
1234,0.404053709647809
1235,0.400240443260845
1236,0.396762385475875
1237,0.393519124195805
1238,0.39060306068333
1239,0.388247581929874
1240,0.386406813901283
1241,0.384645828298017
1242,0.382567712271207
1243,0.380169021243299
1244,0.377696093902624
1245,0.375351104572217
1246,0.373218326941348
1247,0.371288308768948
1248,0.369419412586049
1249,0.367395348397951
1250,0.365106802581891
1251,0.362584012553627
1252,0.359838604671137
1253,0.356824894276345
1254,0.35360248944083
1255,0.350364953199199
1256,0.347236028264774
1257,0.344165816766295
1258,0.341057698871859
1259,0.337850866549675
1260,0.334471694086506
1261,0.330925391873965
1262,0.327477748742405
1263,0.324537563485057
1264,0.322276070372335
1265,0.320553537867778
1266,0.31925762272336
1267,0.318444098093043
1268,0.318102249459205
1269,0.318024940931248
1270,0.318031421484671
1271,0.318126160552372
1272,0.318325316371426
1273,0.318564384356764
1274,0.318875507941676
1275,0.319421558465002
1276,0.320258621694031
1277,0.321254732454057
1278,0.32232712179358
1279,0.323538313713488
1280,0.324867334251851
1281,0.326132197067581
1282,0.327233847893452
1283,0.328251076680409
1284,0.329215200186117
1285,0.330046938077957
1286,0.330791305330086
1287,0.331649966288968
1288,0.332699980505002
1289,0.333828596975389
1290,0.335021205009164
1291,0.336432237821965
1292,0.338084908366275
1293,0.339787066651169
1294,0.34143648581972
1295,0.343129469504865
1296,0.344893249487248
1297,0.346599894191383
1298,0.348244977414933
1299,0.350016285694097
1300,0.351976604840203
1301,0.353969925604083
1302,0.355931879722043
1303,0.357998322584536
1304,0.360213786241094
1305,0.362418987776799
1306,0.364534834334819
1307,0.366686116400058
1308,0.368966797778671
