"Wave Length","Absorbance"
450,0.845465999916537
451,0.849798942400929
452,0.85187022153796
453,0.853495422024957
454,0.857954731469565
455,0.863436912560784
456,0.866113774558848
457,0.865449918606116
458,0.864475973951172
459,0.864504908357556
460,0.864275043364765
461,0.863817627858718
462,0.86395017424156
463,0.863952456977663
464,0.862893905894073
465,0.861511817493131
466,0.860170112708648
467,0.856895220801282
468,0.850342231278888
469,0.842673237968435
470,0.835837478896394
471,0.827719189886944
472,0.815632528659546
473,0.801869670094794
474,0.790405055269325
475,0.780118287732354
476,0.76739624987098
477,0.75185780443228
478,0.735840225218695
479,0.720532711104226
480,0.705362021904932
481,0.690218816516689
482,0.675595007386884
483,0.660918036222895
484,0.645056470574081
485,0.628401167930184
486,0.612413021848055
487,0.59750625083824
488,0.583251615932085
489,0.569699599862647
490,0.556883233934189
491,0.543852112280382
492,0.529939047077114
493,0.516569019941344
494,0.505741431096474
495,0.497226991593569
496,0.489241741552953
497,0.481205598352271
498,0.474021471209889
499,0.467956271679092
500,0.462018996199252
501,0.455658931052979
502,0.449734161369769
503,0.445304970911994
504,0.442433537995912
505,0.440716458736298
506,0.439802941006541
507,0.438786919519731
508,0.436439365885266
509,0.432690674330459
510,0.428745000800661
511,0.425604801831965
512,0.423331762037172
513,0.421491797969983
514,0.419453474351738
515,0.416289676189676
516,0.411364005514311
517,0.405369352808234
518,0.40000571633526
519,0.396295072293754
520,0.394140595242746
521,0.393364415773379
522,0.393855211138316
523,0.394869014725853
524,0.395389127188522
525,0.395365812329395
526,0.395807167456163
527,0.397247334854804
528,0.399010916158793
529,0.40043819159204
530,0.401598835115672
531,0.402606835014769
532,0.403258381071327
533,0.40356008374163
534,0.40385768362522
535,0.404208799152861
536,0.404299246060839
537,0.40405660224
538,0.403652265542831
539,0.40293553126169
540,0.401685498935839
541,0.400361205827278
542,0.399762180859348
543,0.399920836806476
544,0.400174943081959
545,0.400336309643799
546,0.40086326716219
547,0.40177728277044
548,0.402430857170886
549,0.402675862638225
550,0.403213881336853
551,0.404478610819071
552,0.40608144635021
553,0.407661239074293
554,0.409439305884019
555,0.411600045611394
556,0.41389321360021
557,0.41612382717663
558,0.418311455384221
559,0.420131001515667
560,0.420965123907228
561,0.420744353786137
562,0.420069574612574
563,0.41941094319544
564,0.41887322413706
565,0.418696529351993
566,0.419210770213493
567,0.420266268453715
568,0.421404616324049
569,0.422594581836813
570,0.424067961151384
571,0.425461553661333
572,0.426040726518868
573,0.425748033553646
574,0.425151851431005
575,0.424549436529532
576,0.423969952285248
577,0.423850761254163
578,0.424648672549952
579,0.425925294060809
580,0.426837769310511
581,0.427422342544324
582,0.428374598757228
583,0.42960870151537
584,0.430244990912102
585,0.430129399310061
586,0.430196744222761
587,0.431050114979812
588,0.432246833473394
589,0.433279461269425
590,0.434261135906313
591,0.435339255206258
592,0.436400277873306
593,0.437657456377665
594,0.439578762398263
595,0.44193116777062
596,0.443799802698208
597,0.444778583084594
598,0.445269767165211
599,0.445458632673293
600,0.444935510905202
601,0.443633143317128
602,0.442137096413091
603,0.440724289371315
604,0.439039997180942
605,0.4369915105407
606,0.434974056467364
607,0.432885290575857
608,0.429906148949377
609,0.425807981686016
610,0.42141013032441
611,0.417265396781602
612,0.413271308521469
613,0.409550879639435
614,0.406652176228111
615,0.404821480772884
616,0.404006929555411
617,0.404706426428284
618,0.407584086150855
619,0.411724002198097
620,0.414640431440123
621,0.414877546090045
622,0.413455959364731
623,0.412053750790874
624,0.410540506047729
625,0.406942456246284
626,0.399446284961044
627,0.388112841370386
628,0.374979159085079
629,0.362817894778043
630,0.353411109921148
631,0.34656660231329
632,0.341213264191095
633,0.33703100764566
634,0.334435143762871
635,0.33348437634848
636,0.333612604166135
637,0.334404984523129
638,0.335876793443172
639,0.337791272896163
640,0.339796682425224
641,0.342504233008639
642,0.346809277032452
643,0.351816372644865
644,0.354736714354623
645,0.353241195627654
646,0.347397104058615
647,0.339259343201762
648,0.331214622065078
649,0.325059613991181
650,0.32138459593239
651,0.319124653042727
652,0.316962258878315
653,0.314884361003301
654,0.313502067713845
655,0.312641137977421
656,0.311547855897038
657,0.310256258098273
658,0.309492371094063
659,0.309310722352789
660,0.309108154229541
661,0.309126379441714
662,0.309400090768408
663,0.308579040455099
664,0.305296736871533
665,0.299076922842625
666,0.290498157377177
667,0.279991505848179
668,0.272798581708213
669,0.279242870117756
670,0.293581626261019
671,0.305374460311407
672,0.313723488554599
673,0.319619650081747
674,0.323648587232039
675,0.326367161011639
676,0.328687218964482
677,0.330664488159417
678,0.331686118576797
679,0.331685354280755
680,0.331027118781277
681,0.330212301385359
682,0.3292477958389
683,0.328325718191252
684,0.328190181640777
685,0.329077562936707
686,0.330484276793297
687,0.332041413616093
688,0.334032509230885
689,0.336759110247218
690,0.340257421145488
691,0.344657929636869
692,0.350117407060305
693,0.35665382024918
694,0.364153140303913
695,0.372604685661713
696,0.38231443881574
697,0.393405409031034
698,0.405622390133215
699,0.418500964184525
700,0.431166333323906
701,0.442300603408808
702,0.450317826202408
703,0.454102827620271
704,0.454059734088125
705,0.452250020583369
706,0.451800608564556
707,0.455965174690375
708,0.467200598058702
709,0.485935127052575
710,0.508188484077215
711,0.52438481828315
712,0.522919159695825
713,0.497624733507359
714,0.45324550836116
715,0.402779083771596
716,0.35881336236552
717,0.327169290615798
718,0.307108844780875
719,0.295425101461953
720,0.289405340700905
721,0.287155048317857
722,0.287159559948408
723,0.288359935360215
724,0.290189270092247
725,0.292297957744626
726,0.294471013976571
727,0.296742044346999
728,0.299175940570943
729,0.301500533383597
730,0.303312971690611
731,0.304622183790822
732,0.305885056037793
733,0.307326669017996
734,0.308722910353124
735,0.31004114998491
736,0.311553850211062
737,0.313244365303234
738,0.3147051894235
739,0.315720994340247
740,0.316463055140967
741,0.317019244748117
742,0.317188099639148
743,0.316858162923288
744,0.316238915407146
745,0.315598058403762
746,0.315060700210963
747,0.314761967294803
748,0.314919401654643
749,0.315631326271067
750,0.316784731448317
751,0.318200629947764
752,0.319732038322973
753,0.321270640978152
754,0.322833250394251
755,0.324588078958577
756,0.326588231792069
757,0.328524105355279
758,0.330019087984337
759,0.331175750853497
760,0.332552002811368
761,0.334557452744523
762,0.337095449906173
763,0.339824137054611
764,0.342547150502939
765,0.345311150802277
766,0.348351163251584
767,0.352026011089678
768,0.356610557179861
769,0.361996719888943
770,0.367632859718515
771,0.372778998841105
772,0.376806429489916
773,0.379417140032726
774,0.380816073994684
775,0.381681277994338
776,0.382760114634683
777,0.384365568465999
778,0.386298982662574
779,0.388236366777337
780,0.390075057091984
781,0.39190201729868
782,0.393756025827051
783,0.395475462520392
784,0.39673260989173
785,0.397242950793205
786,0.397010862621876
787,0.396341633188451
788,0.395547985361512
789,0.394691641071012
790,0.393691685998263
791,0.39259022783614
792,0.391536847852197
793,0.390540994660607
794,0.389428127913096
795,0.388086191643716
796,0.386617677214654
797,0.385213417581768
798,0.383991738169117
799,0.382974340428313
800,0.382088555899518
801,0.38118843072718
802,0.38024330463524
803,0.379524034389379
804,0.379370620598009
805,0.379636435289656
806,0.379538323582746
807,0.378270138018266
808,0.37573999386276
809,0.372603570291898
810,0.369671492671981
811,0.36741318974204
812,0.365903157159676
813,0.364962304497134
814,0.364282781906647
815,0.363601960910072
816,0.362869011503785
817,0.362189241480682
818,0.361590209137841
819,0.360972797558039
820,0.360345521523174
821,0.359965459117862
822,0.360145825626446
823,0.361037243493203
824,0.362708360097224
825,0.365244108734752
826,0.368417329832275
827,0.371215935253919
828,0.372057401243668
829,0.369817756412791
830,0.364743821378271
831,0.358348944912108
832,0.352428544408654
833,0.348116011216638
834,0.34563447234463
835,0.34467902327165
836,0.344868453834636
837,0.345877648873078
838,0.347391060288846
839,0.349181614277853
840,0.351303236719735
841,0.354057115297355
842,0.357745725251069
843,0.362597889403911
844,0.368861263905683
845,0.376452675721339
846,0.384093315481421
847,0.389235295227629
848,0.389823124407725
849,0.386590305050147
850,0.383069203829005
851,0.382799792203648
852,0.386740212224728
853,0.393415859375897
854,0.40100413264892
855,0.408774153761515
856,0.416847648719012
857,0.425528362533984
858,0.435175395977629
859,0.44617824845828
860,0.458716559927247
861,0.472665231872397
862,0.487860879261397
863,0.504321628637143
864,0.522150170740299
865,0.541492673218523
866,0.562593856165869
867,0.585598688736957
868,0.610007931020408
869,0.63425711420601
870,0.655716690557338
871,0.671188649033833
872,0.677976078127933
873,0.674915619876725
874,0.662583986461002
875,0.642470125370942
876,0.6162794214025
877,0.585904094388406
878,0.553330698983876
879,0.520501128939345
880,0.489085284369848
881,0.459978037186977
882,0.432647860759496
883,0.405256368361292
884,0.37622663363638
885,0.346091751782285
886,0.317800418850806
887,0.295014089794433
888,0.27995479229758
889,0.272444588328565
890,0.270595093891997
891,0.272150145366075
892,0.275290622183568
893,0.278916394657041
894,0.282585538030524
895,0.28622533753576
896,0.289765137638426
897,0.292978603922331
898,0.29567308678578
899,0.297841308408258
900,0.299585900932091
901,0.301013938933858
902,0.302254643866539
903,0.303467437116801
904,0.304794201526925
905,0.306364905089515
906,0.308319350679658
907,0.310714300190111
908,0.313438748195906
909,0.316366867767755
910,0.319574884125969
911,0.323245058402175
912,0.327335487934962
913,0.331533900288063
914,0.335555308908664
915,0.339314972031257
916,0.342788424900725
917,0.345884143277389
918,0.348515278460375
919,0.350663018589144
920,0.35234279660587
921,0.353614296192428
922,0.354638687526508
923,0.3555921895515
924,0.356510415190103
925,0.357347111590905
926,0.358206653702461
927,0.359376480199612
928,0.3610719755699
929,0.363247731283969
930,0.36570339459532
931,0.368317731898194
932,0.371137315953158
933,0.374265250332554
934,0.377618203629022
935,0.380726048954132
936,0.382884746499264
937,0.383697738669787
938,0.383463939961619
939,0.382922349080668
940,0.38263695714635
941,0.382708248722089
942,0.382997364771994
943,0.38342091457906
944,0.384000452027521
945,0.384781464045912
946,0.38579186242504
947,0.387021658497163
948,0.388409436910599
949,0.389903300909612
950,0.391515389087758
951,0.393261474002781
952,0.39508360534655
953,0.396904979308118
954,0.398730132652764
955,0.400604016943375
956,0.402520484564319
957,0.404458585371772
958,0.406454377468948
959,0.408545002118461
960,0.410685930461634
961,0.412816846552898
962,0.414955155336762
963,0.417143015011897
964,0.419397006576078
965,0.42181341863068
966,0.424593280511018
967,0.427761027090136
968,0.430896483438666
969,0.433364149884158
970,0.434875332718454
971,0.4357279095253
972,0.436506811907996
973,0.43762691731584
974,0.43914614845351
975,0.440911529339592
976,0.442802929802697
977,0.444839067885559
978,0.447069324455116
979,0.449447449078439
980,0.451898865008022
981,0.454457273266578
982,0.45719481454854
983,0.460026830952069
984,0.462774569517629
985,0.465430124388514
986,0.468154127234778
987,0.470982496916414
988,0.473770916685615
989,0.476516551959313
990,0.479496053709065
991,0.482975586946553
992,0.487013689835209
993,0.491596357137683
994,0.496651387282424
995,0.501810159968303
996,0.506544151260609
997,0.510881020513907
998,0.515647626138598
999,0.521648429447253
1000,0.528834680473165
1001,0.536580041872514
1002,0.544565865074884
1003,0.552947812918951
1004,0.561820246972536
1005,0.570980988904709
1006,0.580178866773233
1007,0.589256759706379
1008,0.598070010453397
1009,0.606558068235321
1010,0.614837649862172
1011,0.622985985990536
1012,0.630818784017544
1013,0.63811113466285
1014,0.644907420199589
1015,0.651407083046946
1016,0.657745539138372
1017,0.664087653175636
1018,0.670708126256711
1019,0.677748951521649
1020,0.685156014273346
1021,0.693066298657645
1022,0.701995034674929
1023,0.712424526639597
1024,0.724519049213464
1025,0.738399790097042
1026,0.753990710055852
1027,0.769884518804338
1028,0.782792081234104
1029,0.789255286757008
1030,0.788383798648424
1031,0.782827064161186
1032,0.777196620180908
1033,0.775567388143741
1034,0.779753433524287
1035,0.789017400073056
1036,0.801024095699763
1037,0.813298775101268
1038,0.824277195867358
1039,0.833442697019227
1040,0.841039619441132
1041,0.847778348785291
1042,0.854371717127144
1043,0.861032733703008
1044,0.867560488668981
1045,0.873897673877786
1046,0.880237194906405
1047,0.886565497468034
1048,0.892570494073816
1049,0.898175939262229
1050,0.903677713186004
1051,0.909198746011537
1052,0.91454542369013
1053,0.919802360146532
1054,0.925507336915564
1055,0.931931801962971
1056,0.938618137363792
1057,0.944826820851932
1058,0.950056690889633
1059,0.954085854851331
1060,0.957046741889503
1061,0.959665411598655
1062,0.962938997931827
1063,0.967284192888097
1064,0.972241833452248
1065,0.976958861186987
1066,0.980608138250652
1067,0.982599918824029
1068,0.9831200309057
1069,0.983454342640251
1070,0.985037082402491
1071,0.988055911111352
1072,0.991524674270052
1073,0.994612947753495
1074,0.997196056778214
1075,0.999150115951811
1076,1
1077,0.999487561714667
1078,0.997688698528721
1079,0.994491704856958
1080,0.989757364379953
1081,0.984063254908851
1082,0.978482806531692
1083,0.973417102134304
1084,0.968424009234979
1085,0.963268470117212
1086,0.958338442469461
1087,0.953909579117234
1088,0.949753257245212
1089,0.945673212146596
1090,0.941770574016793
1091,0.93803613161327
1092,0.93430220745792
1093,0.930722300481933
1094,0.927655342007029
1095,0.92496986510071
1096,0.922096334517332
1097,0.918857939710402
1098,0.915582829055446
1099,0.912306681669953
1100,0.908577580595828
1101,0.904160057472201
1102,0.899269203109553
1103,0.893946308101216
1104,0.887847608453213
1105,0.880835493131036
1106,0.87311668341543
1107,0.86472928548935
1108,0.855507584689742
1109,0.845610774455387
1110,0.835501917483343
1111,0.825281089633129
1112,0.814679928241255
1113,0.80374955859293
1114,0.792953155311544
1115,0.782551967221438
1116,0.772473608773259
1117,0.762820819340683
1118,0.75390274714688
1119,0.745722888450917
1120,0.737981692097036
1121,0.730629304063273
1122,0.723841918868382
1123,0.717422985452484
1124,0.71083455678588
1125,0.703835470599157
1126,0.69641317561111
1127,0.68808396615107
1128,0.678202210727405
1129,0.667418369073879
1130,0.657923098414319
1131,0.651401177026827
1132,0.647363358750755
1133,0.644073101945462
1134,0.640436599773612
1135,0.636468508904135
1136,0.632520186851613
1137,0.628719664393484
1138,0.625024133628095
1139,0.621357282361742
1140,0.617637462094382
1141,0.613919919089404
1142,0.610465469891331
1143,0.607483947519259
1144,0.604939879801946
1145,0.602737626089067
1146,0.600915712123668
1147,0.599479842081219
1148,0.598231371503737
1149,0.597005345899512
1150,0.595905947612025
1151,0.595078543980089
1152,0.59436845559117
1153,0.593394543373442
1154,0.591833761602946
1155,0.589512694567541
1156,0.586405977093468
1157,0.582695198922217
1158,0.578705634495098
1159,0.574635376958468
1160,0.570471018046301
1161,0.566226510738199
1162,0.562074722837732
1163,0.558179529381338
1164,0.554595820589194
1165,0.551421263300612
1166,0.54881559035291
1167,0.546743172792944
1168,0.544875023996205
1169,0.542902837954227
1170,0.540805621668913
1171,0.538708585041634
1172,0.536697619232476
1173,0.534899088493578
1174,0.533544541808322
1175,0.532743358696045
1176,0.532251056895637
1177,0.531556070385229
1178,0.530121582059229
1179,0.527606001845837
1180,0.524188237047516
1181,0.520766027315884
1182,0.518456148626904
1183,0.517648237872559
1184,0.517758716441185
1185,0.518015717232025
1186,0.51819803179554
1187,0.518547046681796
1188,0.519283510947843
1189,0.520503403654201
1190,0.52237791750748
1191,0.525086130964885
1192,0.528675822796865
1193,0.533168640723582
1194,0.53870159164222
1195,0.545419318835317
1196,0.553286678669849
1197,0.56223138865659
1198,0.572268236571813
1199,0.583211613158837
1200,0.594343438618385
1201,0.60455214828884
1202,0.612671079498858
1203,0.617709024165493
1204,0.619263780820185
1205,0.617854479338056
1206,0.614593354207474
1207,0.610181371440536
1208,0.60443801533715
1209,0.596933587192784
1210,0.587535659776794
1211,0.576364066244967
1212,0.563619763705158
1213,0.549713782453849
1214,0.535315347557567
1215,0.520978429047093
1216,0.50695511249502
1217,0.493466873731954
1218,0.480940276783798
1219,0.469796985014553
1220,0.460171933244671
1221,0.451937338776238
1222,0.444869610113134
1223,0.438662867854211
1224,0.432871667665071
1225,0.427146656336461
1226,0.421489340899791
1227,0.416109714421784
1228,0.41110345153154
1229,0.406393834116393
1230,0.401927253945669
1231,0.39769324441301
1232,0.393585784672195
1233,0.389479605279724
1234,0.3854284967319
1235,0.381612560774219
1236,0.378093941450222
1237,0.374840986046202
1238,0.371995694877056
1239,0.369801464522337
1240,0.368167896857539
1241,0.366557775708374
1242,0.364479267216432
1243,0.361942893137138
1244,0.359324982707676
1245,0.356948930502447
1246,0.354905291750074
1247,0.35311577617836
1248,0.351386384665785
1249,0.349476500014699
1250,0.347248366268657
1251,0.344714485308244
1252,0.341904280485507
1253,0.338794523683557
1254,0.335447422210495
1255,0.332083304072181
1256,0.328898442223389
1257,0.325869296482852
1258,0.322789892529159
1259,0.319435910202327
1260,0.315696129067137
1261,0.311707288874132
1262,0.30789576931623
1263,0.304734774812259
1264,0.302365331221055
1265,0.300571391745147
1266,0.299161136990383
1267,0.298162622963391
1268,0.297613312320098
1269,0.297356632432339
1270,0.29718180163099
1271,0.297025702315903
1272,0.296906656662266
1273,0.296830113226065
1274,0.296862566488494
1275,0.297134743341659
1276,0.29768413912712
1277,0.298419491782763
1278,0.299305383536189
1279,0.300398655181298
1280,0.301624056641958
1281,0.302737073625725
1282,0.303609442051904
1283,0.304362942112035
1284,0.305125840535422
1285,0.305866415819058
1286,0.306558616384034
1287,0.307292638606388
1288,0.30813073282589
1289,0.309039866734891
1290,0.310057943334635
1291,0.311324375035284
1292,0.312851795914104
1293,0.314464080803375
1294,0.316036849699529
1295,0.317600322515634
1296,0.319165608846647
1297,0.320679046506415
1298,0.322204986949361
1299,0.323901662922816
1300,0.325741125817028
1301,0.327515121054172
1302,0.329185101673253
1303,0.330956785461988
1304,0.332937665165675
1305,0.334983432572692
1306,0.336978598496238
1307,0.339003340203605
1308,0.34114060776134
1309,0.343356660204489
