"Wave Length","Absorbance"
450,0.861104444894397
451,0.862909860589785
452,0.863162348371518
453,0.863539498929003
454,0.866339295160531
455,0.870094528823619
456,0.872301534736495
457,0.872945159035527
458,0.873783502293004
459,0.8747966665459
460,0.875296857332688
461,0.876443130107211
462,0.878873539873461
463,0.880336740221086
464,0.878467259820835
465,0.874291518438929
466,0.870132020452582
467,0.866190368341987
468,0.861678233013683
469,0.857115537944321
470,0.852442866248854
471,0.844777405549732
472,0.831805187974642
473,0.816757531605149
474,0.804434928004814
475,0.793988870095739
476,0.781687600906693
477,0.767006314801668
478,0.752269334392932
479,0.738567576483624
480,0.724878013514953
481,0.710586696526085
482,0.696164566066787
483,0.681598887899975
484,0.666429885331487
485,0.651319211311091
486,0.637485329672362
487,0.624655749859578
488,0.611496344476309
489,0.597504096286132
490,0.583001379367068
491,0.567990035134826
492,0.552598058785554
493,0.538365728108363
494,0.527072801147287
495,0.518383357175071
496,0.510440916253885
497,0.502540315918271
498,0.495586603995273
499,0.490008821597223
500,0.484873432986564
501,0.47948832193209
502,0.474624017771973
503,0.471359238725818
504,0.469551740360623
505,0.46837994726524
506,0.467405843561858
507,0.466351098189106
508,0.464816075200723
509,0.462706165757361
510,0.460216458172075
511,0.457258183091583
512,0.453598818497979
513,0.449531831366921
514,0.445537837851599
515,0.441349063714553
516,0.436230815983082
517,0.430323074407969
518,0.424895430912654
519,0.420857004238819
520,0.417963508319858
521,0.415762732306759
522,0.414212607092215
523,0.413164216060865
524,0.412194111192294
525,0.411268189222126
526,0.410977936268132
527,0.411711797308522
528,0.413097740732922
529,0.414655200117403
530,0.416223840982967
531,0.417562515951282
532,0.418288382409417
533,0.418418750735119
534,0.418364466238109
535,0.418251912233616
536,0.417885815913556
537,0.417415135040448
538,0.417291268117878
539,0.417519521008868
540,0.417642445462835
541,0.417531750396893
542,0.417530622338872
543,0.417738524280698
544,0.417868562222252
545,0.417893697187834
546,0.418139535646082
547,0.418660243261555
548,0.419218575065124
549,0.419981854465913
550,0.421432308784206
551,0.423529951746834
552,0.425773244808154
553,0.428083227598912
554,0.430762292045404
555,0.433632378073441
556,0.436188640293922
557,0.438565776373205
558,0.441196444425047
559,0.443501296384757
560,0.444257064203364
561,0.443465117364172
562,0.44258997966558
563,0.442666774151183
564,0.443376885037474
565,0.444223034662231
566,0.445385292513432
567,0.446940527579245
568,0.448326234762619
569,0.449241292762023
570,0.450154430706238
571,0.451349952830708
572,0.452388080586259
573,0.452936145897963
574,0.453241607412623
575,0.453494068557593
576,0.453566116103192
577,0.453662294722639
578,0.454320950519132
579,0.455527700138385
580,0.456705547850002
581,0.457700108564089
582,0.458893987035495
583,0.46021676955368
584,0.461065484504585
585,0.461425650985139
586,0.462039207336619
587,0.463192298205828
588,0.464367818162662
589,0.46535354585948
590,0.466601459847225
591,0.468195360504689
592,0.469558347617174
593,0.470583095458492
594,0.471918170212837
595,0.4736930615622
596,0.475144766416423
597,0.475893802239249
598,0.476450505967215
599,0.477071316549115
600,0.477186106561531
601,0.476470195073055
602,0.475360334466949
603,0.473957294825063
604,0.471551997067064
605,0.467853028855822
606,0.463608794728906
607,0.459394619344505
608,0.454821065081717
609,0.449699676570889
610,0.444749248862368
611,0.440349254607366
612,0.436123413278022
613,0.431979347904181
614,0.428536883964209
615,0.426387990856345
616,0.425839080145125
617,0.427516706067285
618,0.431870892608563
619,0.43740637217853
620,0.440921309943342
621,0.440618147044139
622,0.437819138097864
623,0.43484683220887
624,0.432039704313815
625,0.427449451064034
626,0.418918629932539
627,0.406051499545981
628,0.390678806364038
629,0.375909638424724
630,0.36421968361948
631,0.355878903019932
632,0.349776670702015
633,0.345268758507896
634,0.342415492688298
635,0.34091013340882
636,0.339906811056298
637,0.339161379508268
638,0.3393935326454
639,0.340994241049935
640,0.343584228260781
641,0.347356624624149
642,0.352983202729938
643,0.359516797105381
644,0.363794782725398
645,0.362745450888497
646,0.355992528924478
647,0.345973131785215
648,0.335963173689058
649,0.328451444985691
650,0.324100988629149
651,0.321394019834956
652,0.318619431761346
653,0.315824970687678
654,0.313927767432272
655,0.312936480659045
656,0.312030175395656
657,0.311048979868893
658,0.310482417829595
659,0.310113337750301
660,0.309260815514003
661,0.308603320719583
662,0.308536965450664
663,0.307316230862082
664,0.302840866140124
665,0.294142709013035
666,0.282162559146741
667,0.268203144411305
668,0.259452262835072
669,0.268029572459605
670,0.285990045023263
671,0.300351751814693
672,0.310334309561192
673,0.317326524020614
674,0.321904122265733
675,0.324666818214102
676,0.326952872262183
677,0.32917592196664
678,0.330704283319621
679,0.331324981275768
680,0.331183717086301
681,0.330582864423043
682,0.329376053857345
683,0.327926194485254
684,0.327442007183166
685,0.328353216842993
686,0.329903453106149
687,0.331453099592251
688,0.333355953885743
689,0.336154968562654
690,0.340053586386866
691,0.345245418291205
692,0.351818905824397
693,0.359610741657597
694,0.368369130935002
695,0.378166075873458
696,0.389534934888093
697,0.402592002883797
698,0.416755976597185
699,0.431212929220604
700,0.444889439943005
701,0.456361698471981
702,0.463891655335266
703,0.466206632077237
704,0.463715693222616
705,0.458665439643206
706,0.454513814342338
707,0.454901733345291
708,0.462583866491535
709,0.478180963198014
710,0.497911891939047
711,0.512569928230734
712,0.511037314475214
713,0.487295952186964
714,0.445594633425652
715,0.398107553188634
716,0.356793673696544
717,0.327218918123408
718,0.308616401170856
719,0.297811835298859
720,0.292149663136987
721,0.289873423652463
722,0.289709151297195
723,0.290817454195916
724,0.29264874081902
725,0.294668967029801
726,0.296509585115373
727,0.298289989434096
728,0.300322487179858
729,0.302490709801369
730,0.304335290095075
731,0.305684542548061
732,0.306859202813728
733,0.308071207516418
734,0.309209305054236
735,0.310412435006787
736,0.311982509539512
737,0.313710778484948
738,0.315016847886664
739,0.315762393419963
740,0.316296979210312
741,0.31670234734917
742,0.316620456169643
743,0.315906294835811
744,0.314940702811004
745,0.314188399944781
746,0.313849112300824
747,0.31399677409404
748,0.314661281253487
749,0.31569219127203
750,0.316869134275942
751,0.318182044601566
752,0.319749189688958
753,0.321530914640077
754,0.323406184061805
755,0.325440898869194
756,0.327736567483245
757,0.330044541638789
758,0.331937244780103
759,0.333410720990361
760,0.334961852705372
761,0.337007558103284
762,0.3395127372303
763,0.3422407042783
764,0.345098656918208
765,0.348166162970256
766,0.351624678818084
767,0.355740241370275
768,0.360712091477844
769,0.366411351823778
770,0.372318668945968
771,0.377716575400313
772,0.381931278650073
773,0.384599673372511
774,0.385930622415539
775,0.386651697048111
776,0.387522164675073
777,0.388876367924569
778,0.390645685577634
779,0.392632738868854
780,0.394623263802144
781,0.396405245396738
782,0.397892829173834
783,0.399131351613561
784,0.400043016541678
785,0.400350488607712
786,0.39994033829877
787,0.399108428374402
788,0.398200171800474
789,0.397171307813869
790,0.395780956965272
791,0.394070980698575
792,0.392329298779918
793,0.39066039194724
794,0.388917627897229
795,0.387035574070831
796,0.385116424112457
797,0.383198100237513
798,0.381248170921732
799,0.37940802660869
800,0.377952577139473
801,0.376966620995238
802,0.376328623819392
803,0.376034329971497
804,0.376196260441177
805,0.376580875203198
806,0.376421604384311
807,0.374939703326655
808,0.372018769428335
809,0.36830481372075
810,0.364743234582
811,0.362029646644453
812,0.360302778295396
813,0.359199645173178
814,0.35824807429223
815,0.357289336154797
816,0.356503620936162
817,0.356066154041032
818,0.355915054380303
819,0.355897964503276
820,0.356003694903404
821,0.356360374596171
822,0.357135231275927
823,0.358581087973644
824,0.361100802273151
825,0.364964146849346
826,0.369698706145207
827,0.373742451468623
828,0.374972667900089
829,0.371962518120749
830,0.365018278421629
831,0.356106690890027
832,0.347703567433305
833,0.341513749641126
834,0.337952551932183
835,0.336514562760045
836,0.336439749617594
837,0.337124838043752
838,0.33824687068447
839,0.339778479619439
840,0.341927669047848
841,0.344905473526122
842,0.348742870628499
843,0.353432605513312
844,0.359161203515693
845,0.365971534661622
846,0.372848815048871
847,0.377535143297422
848,0.378104790244436
849,0.375138442334075
850,0.371825150997784
851,0.371393566146139
852,0.374671557674632
853,0.380270932956027
854,0.386634941521364
855,0.393336310367702
856,0.400625059098826
857,0.408665084714052
858,0.417555360383782
859,0.427539007134616
860,0.438837039655491
861,0.451458357951082
862,0.4653618843631
863,0.480626031841139
864,0.497330641219082
865,0.515549118253901
866,0.535493695297825
867,0.557369555073084
868,0.580814623641711
869,0.604471446037136
870,0.625995299337052
871,0.642411458151642
872,0.650926327293034
873,0.649954694772028
874,0.639717639728197
875,0.6217461295471
876,0.598003676602736
877,0.570419668376799
878,0.540658311567927
879,0.51023640777874
880,0.480616125278494
881,0.452828983936076
882,0.426726110460801
883,0.400820264558014
884,0.373574489317244
885,0.345227513994605
886,0.318365305125878
887,0.296496308410678
888,0.281928731033338
889,0.274655199263273
890,0.272905431014544
891,0.274454240279819
892,0.277473791507463
893,0.280880109995599
894,0.284287463443524
895,0.287661709310323
896,0.2909164579119
897,0.293827722459151
898,0.296292879183811
899,0.298398240315085
900,0.300205516518655
901,0.301675890014352
902,0.302855788607438
903,0.303925124007403
904,0.305029371097238
905,0.306251402773604
906,0.307753034698295
907,0.309724448072497
908,0.312157058164616
909,0.314897131109702
910,0.317953383304664
911,0.321505177469884
912,0.325520511953223
913,0.329638750599683
914,0.333532604032171
915,0.337158903660153
916,0.340561228941826
917,0.343651058521592
918,0.346312014772693
919,0.348540232139411
920,0.350380166425544
921,0.351844788621499
922,0.352973420500902
923,0.353838100220216
924,0.354466639854848
925,0.354917352626503
926,0.355454891450809
927,0.356467184037752
928,0.358131277391743
929,0.360284538585506
930,0.362674685465355
931,0.365249881147733
932,0.368182523078938
933,0.371690407399256
934,0.375735095600506
935,0.379692961232346
936,0.382431310998992
937,0.38307840325619
938,0.381825083647167
939,0.379802151674456
940,0.378135531369714
941,0.377238536656774
942,0.376950925990517
943,0.377021691333909
944,0.377323717405977
945,0.377823349667038
946,0.378543357621392
947,0.379509726732335
948,0.380674282221497
949,0.381980124185983
950,0.383489565602042
951,0.385311727940705
952,0.387393182228591
953,0.389521207597974
954,0.391561177582944
955,0.393541002150155
956,0.39550590005798
957,0.39745623329058
958,0.399432301587913
959,0.401503633375902
960,0.403656471867369
961,0.405834726285101
962,0.408076573629199
963,0.410461969174609
964,0.412981960115923
965,0.41565219194601
966,0.41867468049176
967,0.422183712252689
968,0.42578618611983
969,0.428650754740291
970,0.430224931270273
971,0.430722820331884
972,0.430866594749015
973,0.431300054437892
974,0.432287783501082
975,0.43378329427159
976,0.435599457921772
977,0.43756879780214
978,0.439654937020479
979,0.441938852485042
980,0.444505631409226
981,0.447361788832631
982,0.450417725118757
983,0.453490114700125
984,0.456397570285274
985,0.459130934250611
986,0.461856651948458
987,0.464693951472646
988,0.467605247870493
989,0.470605756373737
990,0.473917584887703
991,0.477753224503019
992,0.482086919027476
993,0.486789566200289
994,0.49184169104762
995,0.497218725648106
996,0.50271332815273
997,0.508160233720055
998,0.513722224549328
999,0.519717085197089
1000,0.526273963966874
1001,0.533369677268413
1002,0.541093018025575
1003,0.549554341448981
1004,0.558603963526943
1005,0.567912361940923
1006,0.577259859731986
1007,0.586530526415782
1008,0.595540326450187
1009,0.604156339308225
1010,0.612477965450851
1011,0.620641978792941
1012,0.628544585433223
1013,0.635999742670445
1014,0.643033464436492
1015,0.649789218982844
1016,0.656332368988282
1017,0.662777891599751
1018,0.669408859671862
1019,0.67642756447287
1020,0.683846915994101
1021,0.691864588016181
1022,0.701107093755728
1023,0.712252841702954
1024,0.725672302053677
1025,0.741555554805271
1026,0.759619067485187
1027,0.777888485904978
1028,0.792222847059693
1029,0.798403559508589
1030,0.795357331814723
1031,0.786294638147417
1032,0.776810174522604
1033,0.77188851225874
1034,0.773888952865186
1035,0.782209296997428
1036,0.794268046257634
1037,0.807051513952405
1038,0.818442765929404
1039,0.82768948032881
1040,0.835205138582192
1041,0.842030835671353
1042,0.849070827749414
1043,0.856493769353618
1044,0.863906753572566
1045,0.871063194164557
1046,0.878071644716122
1047,0.884943657873265
1048,0.89142982573901
1049,0.897490520169548
1050,0.903419728495409
1051,0.909301661372887
1052,0.914872830625894
1053,0.920174424360795
1054,0.925809460529446
1055,0.932185711687655
1056,0.938894587978775
1057,0.945083842209847
1058,0.950104357685792
1059,0.953725079157038
1060,0.956214934962385
1061,0.958464797210105
1062,0.961600883503591
1063,0.96613660661473
1064,0.971614076228211
1065,0.976973510464434
1066,0.981007792547442
1067,0.982819283238271
1068,0.982617685894029
1069,0.982056959965834
1070,0.983016593778161
1071,0.985902623708791
1072,0.989637119199124
1073,0.993165911565752
1074,0.996229087922538
1075,0.998679706778242
1076,1
1077,0.999826138569162
1078,0.998178348810753
1079,0.995000087687502
1080,0.990209955773823
1081,0.984334543545996
1082,0.978354576021429
1083,0.97267460145151
1084,0.966962079138791
1085,0.961088111004963
1086,0.955463743785284
1087,0.950329004039896
1088,0.945414851083568
1089,0.940509750457584
1090,0.935734930619135
1091,0.931127790135337
1092,0.926569396980401
1093,0.922258175489965
1094,0.918616267585318
1095,0.915579048060063
1096,0.912570206697085
1097,0.909282161335945
1098,0.905871321881967
1099,0.902310308753314
1100,0.898251803813197
1101,0.893656624308699
1102,0.88888982820561
1103,0.883988564137009
1104,0.878468380173582
1105,0.872047587128569
1106,0.864910218692729
1107,0.85715868715337
1108,0.848606296962148
1109,0.839249216047846
1110,0.829404325009336
1111,0.819212874075364
1112,0.808597004947732
1113,0.797764300189258
1114,0.787200511856276
1115,0.777110212475186
1116,0.767373102309585
1117,0.758086796169748
1118,0.749590412704834
1119,0.741926863360677
1120,0.734800335316194
1121,0.728094599055494
1122,0.72187608257793
1123,0.715863386987093
1124,0.709478670852805
1125,0.70243058596034
1126,0.694578463927178
1127,0.685285305152026
1128,0.673924140128366
1129,0.661480286071898
1130,0.650644416509778
1131,0.643401327208855
1132,0.639202094288341
1133,0.636075937190445
1134,0.632748061758936
1135,0.629134973861888
1136,0.625520410786146
1137,0.62201765483224
1138,0.61864125455205
1139,0.615358490674638
1140,0.612031103849091
1141,0.608633807943933
1142,0.605455611110175
1143,0.60280626232593
1144,0.600668199906606
1145,0.59886179083899
1146,0.597382500562811
1147,0.59630243867678
1148,0.595500089301018
1149,0.594807744183463
1150,0.594279733146264
1151,0.594015264324298
1152,0.593800276809174
1153,0.593174748468296
1154,0.591751010842164
1155,0.589315207703368
1156,0.585813738253587
1157,0.581450139125633
1158,0.576680732016832
1159,0.57188370536872
1160,0.567125918456918
1161,0.56236235522855
1162,0.557697219056114
1163,0.55332703334718
1164,0.549391688291013
1165,0.546026540454891
1166,0.543374843013906
1167,0.541378131279331
1168,0.539670076408466
1169,0.537867231415549
1170,0.535875528980912
1171,0.53380301250847
1172,0.531771039145926
1173,0.529960875378727
1174,0.528670772879868
1175,0.52807060063419
1176,0.52790489729
1177,0.527539884280635
1178,0.52627442577354
1179,0.523686452914145
1180,0.520022435670723
1181,0.516341037226461
1182,0.513884672567879
1183,0.513047828138238
1184,0.513173073761664
1185,0.513459417176239
1186,0.513756257528508
1187,0.514397500428678
1188,0.515607340097241
1189,0.517399699745397
1190,0.519878883914971
1191,0.523212620633083
1192,0.527458759939961
1193,0.53265784927526
1194,0.538994220254744
1195,0.54665884623834
1196,0.555601778001579
1197,0.565715972515382
1198,0.577070233265347
1199,0.589592132476314
1200,0.602518734459572
1201,0.61438710198825
1202,0.623495270042642
1203,0.628454845160864
1204,0.628879407541593
1205,0.625719090462261
1206,0.620667050419757
1207,0.614824167289502
1208,0.608095513640215
1209,0.599945219081477
1210,0.590124133793675
1211,0.578676992199664
1212,0.565722401751832
1213,0.551582706969017
1214,0.536892039133808
1215,0.522235282001037
1216,0.507911083383196
1217,0.49418940706412
1218,0.481571400817324
1219,0.470533379173838
1220,0.461148846444198
1221,0.453117509621611
1222,0.446071268577701
1223,0.439696416652357
1224,0.433646155955405
1225,0.427688622496026
1226,0.421906049767482
1227,0.416525771727521
1228,0.411595246995934
1229,0.406970499059135
1230,0.402562854180439
1231,0.398337326787107
1232,0.39412372642131
1233,0.389730428611791
1234,0.385236115249407
1235,0.380934347006422
1236,0.376986293688196
1237,0.373405926544968
1238,0.370393539629157
1239,0.368267697874197
1240,0.366911525953862
1241,0.36560836467287
1242,0.363675273631293
1243,0.36107562469963
1244,0.358258592865465
1245,0.355624473186079
1246,0.353319989042257
1247,0.351345168530965
1248,0.349564969814331
1249,0.347679351073667
1250,0.345390445586774
1251,0.342612622591948
1252,0.339450186966571
1253,0.336041240930503
1254,0.332510832766349
1255,0.328972591017532
1256,0.325476744398827
1257,0.322000764202465
1258,0.31851364113769
1259,0.314970071822099
1260,0.31125953762996
1261,0.307344642228607
1262,0.303476699605985
1263,0.300093240704066
1264,0.297420349505091
1265,0.295344079012543
1266,0.293707584499122
1267,0.292484081916008
1268,0.291631905869811
1269,0.291002663019659
1270,0.290505076881169
1271,0.290177590657512
1272,0.289984292093702
1273,0.289766355675496
1274,0.289498546645988
1275,0.289366190307767
1276,0.289516306929037
1277,0.289929591459795
1278,0.290597667125368
1279,0.291572022159026
1280,0.292730104745418
1281,0.293756925842371
1282,0.294474201973225
1283,0.294977541073954
1284,0.295376480167252
1285,0.295667602486832
1286,0.295941738293574
1287,0.296416549672897
1288,0.297157488030119
1289,0.298008975244965
1290,0.298910688947221
1291,0.300009932521685
1292,0.301360027282436
1293,0.302797544632483
1294,0.304219624136365
1295,0.30569486460505
1296,0.307216782690792
1297,0.308647260422702
1298,0.310012771245086
1299,0.311541965191128
1300,0.313284199124457
1301,0.31501612725369
1302,0.316636946390454
1303,0.31832397712097
1304,0.320179664805425
1305,0.322044578224992
1306,0.323818355921396
1307,0.325647828202512
1308,0.327657563329164
