"Wave Length","Absorbance"
450,0.830816175087258
451,0.835793897970269
452,0.838995381873007
453,0.840730017700962
454,0.842988818721846
455,0.844559988242634
456,0.8428753258502
457,0.838389008812645
458,0.834411816425111
459,0.832105990092716
460,0.830214743057881
461,0.829065106954476
462,0.82945397833484
463,0.829791059796494
464,0.827917655902362
465,0.824274082063781
466,0.820230868037637
467,0.815194730232195
468,0.808418480174486
469,0.801604497774373
470,0.796068287667115
471,0.789360554493279
472,0.778210778006087
473,0.764238556785981
474,0.751829771643092
475,0.741214274347683
476,0.729606447469648
477,0.716347006716441
478,0.702955596957152
479,0.689967916979953
480,0.676546837014258
481,0.66269245899138
482,0.649259609232615
483,0.636035531967104
484,0.621950029146956
485,0.607199616952092
486,0.59312163609579
487,0.58002527218923
488,0.567128777769255
489,0.554192483396268
490,0.541580795096243
491,0.529151173392162
492,0.516593188783248
493,0.504754746769479
494,0.494950563542633
495,0.487059412196694
496,0.479856685196644
497,0.472993242107067
498,0.467194468081426
499,0.462550374586732
500,0.458016471179455
501,0.452934644399959
502,0.448006676287027
503,0.444211884985978
504,0.441507817875371
505,0.439321476800415
506,0.437342173111915
507,0.435230064452463
508,0.432582363863716
509,0.429611462695441
510,0.426998822294712
511,0.42487287131542
512,0.42261183969411
513,0.419769161694035
514,0.416498918107655
515,0.412914880365357
516,0.408794685246061
517,0.404217485437344
518,0.399882689709802
519,0.396428538098505
520,0.393969731207884
521,0.392492619167293
522,0.391999783614979
523,0.392126796640213
524,0.392269388145756
525,0.392273293307947
526,0.392558289349596
527,0.393360839425618
528,0.394412951466273
529,0.395594605052229
530,0.397071281387184
531,0.398641496131817
532,0.399697001671159
533,0.400084736271168
534,0.400353514010461
535,0.400852754290866
536,0.401230599219431
537,0.401078329344744
538,0.400497714207485
539,0.399830728479814
540,0.399343020764741
541,0.39931804285998
542,0.399919929247303
543,0.400817784653079
544,0.401471732095887
545,0.401887487096298
546,0.402547529434778
547,0.403524557473227
548,0.404303307147855
549,0.404662104989452
550,0.405005068122221
551,0.405685289619708
552,0.406691332753427
553,0.408112409611461
554,0.410223422042691
555,0.412918382468658
556,0.415684778839202
557,0.418302392518559
558,0.420891562660945
559,0.423163527965723
560,0.424441898764318
561,0.42458067499871
562,0.424101740129428
563,0.423361801853913
564,0.42240355632637
565,0.421629668646879
566,0.421729230781526
567,0.422770670252629
568,0.42408376026723
569,0.425247269280372
570,0.426434764242988
571,0.427557185624873
572,0.427991802778996
573,0.427494310148485
574,0.426591007846999
575,0.425889916722361
576,0.425624765015102
577,0.425905390974934
578,0.426737188035368
579,0.427685180128277
580,0.428174534204082
581,0.42828594562375
582,0.428607802317624
583,0.429203503838623
584,0.429535852773623
585,0.429527147670292
586,0.429833288881783
587,0.430817376849073
588,0.432032524877031
589,0.433004864404771
590,0.433792111276372
591,0.434530320657779
592,0.435148082659567
593,0.435770847862375
594,0.436725737051891
595,0.437929628515531
596,0.438935314492138
597,0.439680238266642
598,0.440469220686211
599,0.441118427321575
600,0.440899362051878
601,0.439593629865381
602,0.437777596416221
603,0.435823091896797
604,0.433458236984577
605,0.430526286081358
606,0.427335733539191
607,0.424002368180948
608,0.420237146693624
609,0.416157463987398
610,0.412424646180197
611,0.40921305949523
612,0.406104260039899
613,0.402984457534225
614,0.400256558424629
615,0.398266776188452
616,0.397346417499534
617,0.398347285412335
618,0.401913091543511
619,0.406778161722119
620,0.410078643615576
621,0.410127805860735
622,0.407917591220298
623,0.405336837571708
624,0.402614301891246
625,0.39805759896762
626,0.389935870488139
627,0.378265862308117
628,0.365007317236917
629,0.352824177643692
630,0.343438926334292
631,0.336778964128623
632,0.331859928995745
633,0.328147509785399
634,0.325684535257639
635,0.324357059038072
636,0.32375387101375
637,0.323770905737592
638,0.324722864413806
639,0.326612992852049
640,0.329089164939598
641,0.332362134479649
642,0.336901958795044
643,0.341841378191779
644,0.344702502882708
645,0.343258435802906
646,0.337394538869568
647,0.329052134161093
648,0.3207648618701
649,0.31443959682092
650,0.310574195555088
651,0.308089019670893
652,0.305752110733065
653,0.30351889352956
654,0.301930829350771
655,0.300931244888175
656,0.299969579688011
657,0.299023314283516
658,0.298508072284558
659,0.298282302530032
660,0.297793789740803
661,0.297322032409576
662,0.297190655315878
663,0.296568875057253
664,0.294213586829606
665,0.289249841680909
666,0.281937052843336
667,0.273097843395762
668,0.267455357608756
669,0.272863599106544
670,0.28470598867623
671,0.294628610147885
672,0.301764179955511
673,0.307034387286673
674,0.310969888970755
675,0.313923419302854
676,0.316476139899444
677,0.318638907941079
678,0.319890117999058
679,0.320102047335326
680,0.319519997497162
681,0.318526158994965
682,0.317173642132954
683,0.31570313712239
684,0.314794561279075
685,0.314757351714196
686,0.315335204601114
687,0.316349233182091
688,0.318088733742272
689,0.32081999497511
690,0.324506715690254
691,0.329082328773289
692,0.334537163914947
693,0.340933112292603
694,0.348392209650524
695,0.357086735298993
696,0.367228918628385
697,0.378703122540709
698,0.391047870370481
699,0.403666184231801
700,0.415643178668148
701,0.425693041912909
702,0.432361750172641
703,0.434697788997684
704,0.43312774377623
705,0.429592676433454
706,0.427037892124629
707,0.428512643617805
708,0.436253635656794
709,0.450616998143333
710,0.468197560715221
711,0.480939050984283
712,0.479128122238534
713,0.457644158019875
714,0.420477736205694
715,0.378379617580891
716,0.341666003926269
717,0.315116312750716
718,0.298181755249789
719,0.288219749958997
720,0.282884554172848
721,0.280532294975852
722,0.279978156731653
723,0.280498840610445
724,0.281737365015162
725,0.283426919552832
726,0.285340676038483
727,0.28743377635337
728,0.28973572433633
729,0.292070650072236
730,0.294129629938044
731,0.295809486308667
732,0.29731174368839
733,0.298779640760382
734,0.300148071761036
735,0.301484340253293
736,0.302991641502703
737,0.304642825001985
738,0.306165344119014
739,0.30737116452074
740,0.308200330356581
741,0.308483708224794
742,0.308002849820551
743,0.306821700431084
744,0.30534136170889
745,0.304002174097253
746,0.303072059991185
747,0.302674312192823
748,0.302822139310692
749,0.303418218688635
750,0.304348122117649
751,0.305549866096405
752,0.306931438573241
753,0.308358468637002
754,0.309839826971209
755,0.311579678006715
756,0.313670504679833
757,0.315829886881541
758,0.31765777965472
759,0.319105616759131
760,0.32050684086249
761,0.322200908505174
762,0.324302706689278
763,0.326794640965291
764,0.329654475488471
765,0.332887752028298
766,0.336590828054173
767,0.341000571581685
768,0.346336701283278
769,0.352489220575768
770,0.358847101930283
771,0.364457625015026
772,0.368478244233074
773,0.370709035808502
774,0.371779330972469
775,0.372706189229982
776,0.374175959445743
777,0.376246315307179
778,0.378649481315986
779,0.381164453343837
780,0.383650834590637
781,0.385952872963496
782,0.387950524022149
783,0.389609819989865
784,0.390873455789559
785,0.391603575070359
786,0.391724799487518
787,0.391328679525835
788,0.390564640399842
789,0.389524096706239
790,0.388295634087098
791,0.387002133586865
792,0.385680089722265
793,0.384233379741987
794,0.382605387891311
795,0.380902046759014
796,0.379252858375159
797,0.377666612067124
798,0.376132336032834
799,0.374733576253187
800,0.37352305206347
801,0.3724246434183
802,0.371470908844843
803,0.371023516882841
804,0.37142887766098
805,0.372350992131392
806,0.372665574447637
807,0.371248072212869
808,0.367922942542867
809,0.363614562964324
810,0.359613335635062
811,0.356710894589329
812,0.354911145876219
813,0.353752160874976
814,0.35277564552625
815,0.351758832821941
816,0.350673949011897
817,0.349576917159706
818,0.348550375962397
819,0.347697908453945
820,0.347144992779236
821,0.347027153274076
822,0.347489965023792
823,0.348708904930669
824,0.350879868037842
825,0.354039606399028
826,0.357681347837993
827,0.360498671105558
828,0.360789541831055
829,0.357491901382245
830,0.351020561476072
831,0.343107968573617
832,0.335762623320494
833,0.33024696176191
834,0.326787516224011
835,0.325006636404922
836,0.324479174096194
837,0.324917226818356
838,0.326067008918151
839,0.327693339405964
840,0.329755637998473
841,0.332439205606743
842,0.335951751680757
843,0.340427520380635
844,0.346036436442365
845,0.352743157256214
846,0.359495314651132
847,0.364009275684644
848,0.364314603599546
849,0.360978222074591
850,0.357222095715026
851,0.356307213373612
852,0.359097807492124
853,0.364277651963827
854,0.370339729859363
855,0.376796245943471
856,0.38377500429665
857,0.39139690338718
858,0.399810059839766
859,0.409269579992697
860,0.419935574389433
861,0.431815486533599
862,0.444990896534091
863,0.459645484032981
864,0.475795258076096
865,0.493317316923927
866,0.512240255393669
867,0.532670207747932
868,0.554227201608651
869,0.575624181618382
870,0.594674349007789
871,0.60862495280404
872,0.614967999473699
873,0.612457858606927
874,0.601555089109022
875,0.583717033018657
876,0.560555507293439
877,0.533720412650476
878,0.504972266552869
879,0.476144445925642
880,0.448800601715261
881,0.423670923266577
882,0.400159919500872
883,0.37658952376852
884,0.351596587180196
885,0.325689805288057
886,0.301455444650972
887,0.282034127761858
888,0.269279752794353
889,0.263034268382711
890,0.26177217821705
891,0.263641576901278
892,0.267015045868782
893,0.270782593136031
894,0.274470273275738
895,0.278028294874089
896,0.281414004020479
897,0.284426202497654
898,0.286923932157824
899,0.288932747064248
900,0.290498594571304
901,0.291644210616672
902,0.292520351642591
903,0.293397975966977
904,0.294467253071504
905,0.295805885700979
906,0.297547113502661
907,0.299872479978191
908,0.302807869487738
909,0.30622382043049
910,0.310055068932822
911,0.314317375616569
912,0.318867033848938
913,0.323393600150641
914,0.327705856309466
915,0.331816599054607
916,0.335699572945808
917,0.339177482439465
918,0.342115887017244
919,0.344539698206647
920,0.346514252590891
921,0.348059861973763
922,0.349230467658182
923,0.35012031419857
924,0.350773350492845
925,0.351246379047896
926,0.351778642386658
927,0.352731956169131
928,0.354306381962053
929,0.356423416244719
930,0.358909549836757
931,0.361707849868602
932,0.364894168516039
933,0.368555643276934
934,0.372567965367671
935,0.376347619460588
936,0.378955126880579
937,0.379743322037088
938,0.378951416197221
939,0.377524708464696
940,0.376363571147364
941,0.375824187534002
942,0.375819824400574
943,0.376126793677179
944,0.376565110324566
945,0.377100240850475
946,0.377862081546159
947,0.378979955945297
948,0.380392132912718
949,0.381925199744902
950,0.383520475979954
951,0.385250957100195
952,0.387154029429861
953,0.389192932945454
954,0.391363463697736
955,0.393679962962369
956,0.396077908405384
957,0.398466417577944
958,0.400843518124771
959,0.403239878003518
960,0.405604206397629
961,0.4078867764396
962,0.410166159389647
963,0.412548901969281
964,0.415038971439866
965,0.41767053529809
966,0.420632737002746
967,0.42399525720561
968,0.427351148718252
969,0.430014876149687
970,0.431646844636861
971,0.432524700839782
972,0.433222818932723
973,0.434184688249813
974,0.435579966652226
975,0.437369799646853
976,0.439415311342844
977,0.441617765467812
978,0.443992292104098
979,0.446578986910448
980,0.449336884352437
981,0.452192154306956
982,0.455121926142739
983,0.458095859348254
984,0.461028699992856
985,0.463889669699869
986,0.466761250972029
987,0.469706338594266
988,0.472696269520711
989,0.475785753571202
990,0.479219485629984
991,0.48322254834242
992,0.487816710916725
993,0.492932074709435
994,0.498535102832748
995,0.504515846974301
996,0.510634057217753
997,0.516811621083472
998,0.523296382675134
999,0.530358526914865
1000,0.538014545762748
1001,0.546210362107978
1002,0.555070488964933
1003,0.564678392648281
1004,0.57479702366248
1005,0.585073302402068
1006,0.595351058181694
1007,0.605561994229974
1008,0.615526112883908
1009,0.625131819399784
1010,0.634480940494008
1011,0.643597312711484
1012,0.652214537109952
1013,0.66012582566624
1014,0.667493738527696
1015,0.674561865062794
1016,0.681385144513331
1017,0.68809668862339
1018,0.695089508865072
1019,0.702632471644426
1020,0.71066451187022
1021,0.719260396448516
1022,0.728955116894286
1023,0.740311277758922
1024,0.753540344853099
1025,0.768746014698797
1026,0.785740478714802
1027,0.80283373961605
1028,0.816326278909675
1029,0.822484121258175
1030,0.820469998642344
1031,0.81321434831549
1032,0.805638299898531
1033,0.802103071932828
1034,0.804675949660695
1035,0.812726898096612
1036,0.823830100532881
1037,0.835346837696675
1038,0.845607547672034
1039,0.85403518327826
1040,0.860839282396881
1041,0.866794646716816
1042,0.872765665959048
1043,0.879028617127361
1044,0.885257704222375
1045,0.891229921029129
1046,0.89709455012573
1047,0.902868164303788
1048,0.908237349876897
1049,0.913128149270215
1050,0.917897007643648
1051,0.922714969883504
1052,0.92737110078652
1053,0.931949770600052
1054,0.937044193777267
1055,0.942922919764658
1056,0.949023192799559
1057,0.954555660840133
1058,0.959139646362354
1059,0.962708494133231
1060,0.965393451578334
1061,0.967758138672588
1062,0.97058301432724
1063,0.974099114942865
1064,0.977820361215436
1065,0.981154878750255
1066,0.983694981411743
1067,0.985051504790775
1068,0.985225766448206
1069,0.985214705272188
1070,0.986374209051998
1071,0.98897544519909
1072,0.992070615554333
1073,0.994830636124707
1074,0.997198959181986
1075,0.99910623012152
1076,1
1077,0.999529162507546
1078,0.997839028995721
1079,0.994935167957827
1080,0.990580137651537
1081,0.985046244299692
1082,0.979189434447059
1083,0.97346783946052
1084,0.967678162660664
1085,0.96181596930347
1086,0.956360821186598
1087,0.951516194756893
1088,0.946921217921144
1089,0.942354446408164
1090,0.938025734063984
1091,0.933991526510281
1092,0.929982897495126
1093,0.926020723322819
1094,0.922490630760012
1095,0.919398059457669
1096,0.916221066869172
1097,0.912691023918517
1098,0.909042176990814
1099,0.905317568970408
1100,0.901147528146378
1101,0.89638994035586
1102,0.891317643009796
1103,0.885959963161068
1104,0.879928708935345
1105,0.873101155123726
1106,0.86575835838393
1107,0.857926937955669
1108,0.849257240696065
1109,0.839709760831498
1110,0.829742402950252
1111,0.81961701795476
1112,0.80919149838547
1113,0.798517572521897
1114,0.78801509314318
1115,0.777927661274652
1116,0.768176368457826
1117,0.758870896939762
1118,0.750375194712669
1119,0.742754531055888
1120,0.73567426376792
1121,0.728942381992524
1122,0.72260287999203
1123,0.716418987675759
1124,0.709863709072754
1125,0.702719913158959
1126,0.695072405566856
1127,0.686657085204507
1128,0.677047073759671
1129,0.666855758471716
1130,0.657902549460247
1131,0.651480905772019
1132,0.647091329123087
1133,0.64336065313942
1134,0.639545773663881
1135,0.635701944178501
1136,0.632004202996993
1137,0.628481437716196
1138,0.625153843728314
1139,0.62199537432294
1140,0.618851887288652
1141,0.615697866139333
1142,0.612814484431987
1143,0.610453466739499
1144,0.608544285684562
1145,0.606941025783074
1146,0.605720768722914
1147,0.604982067866209
1148,0.604565907333036
1149,0.604265505529262
1150,0.604093421739511
1151,0.604067153252054
1152,0.603905464862208
1153,0.603193473203752
1154,0.60167008008129
1155,0.599198898038974
1156,0.595714285813191
1157,0.591393671048048
1158,0.586698327708831
1159,0.582013914619106
1160,0.577411423021735
1161,0.572871401498857
1162,0.56851391963225
1163,0.564481341943011
1164,0.560811738203146
1165,0.557570824854901
1166,0.554874213248828
1167,0.552637938791684
1168,0.550516162472553
1169,0.548270367784568
1170,0.546013557408642
1171,0.543950894518944
1172,0.542129487250242
1173,0.540586115328332
1174,0.539493647681389
1175,0.538917865419549
1176,0.538565534953415
1177,0.537950835115407
1178,0.536687994832364
1179,0.534583423728444
1180,0.531766786374819
1181,0.5288790613306
1182,0.526778567399431
1183,0.525793144178283
1184,0.525497350006793
1185,0.52538340901556
1186,0.525444348138386
1187,0.525979960850073
1188,0.527131499923121
1189,0.528897967160638
1190,0.531420974638657
1191,0.534878647040981
1192,0.539310191255536
1193,0.54476538215634
1194,0.551468399252285
1195,0.559630640031117
1196,0.569189517739533
1197,0.580018446178331
1198,0.592133136027479
1199,0.605320815464614
1200,0.618650086532339
1201,0.630632097084134
1202,0.639751916800138
1203,0.644867973710311
1204,0.645687789527132
1205,0.643032205099167
1206,0.638344667127371
1207,0.632505888485331
1208,0.625334490967434
1209,0.616357010279394
1210,0.605445005272143
1211,0.592741941121765
1212,0.57844387070054
1213,0.562951027794435
1214,0.546955651489611
1215,0.531062146946562
1216,0.515585982390254
1217,0.500828224641809
1218,0.487292739021901
1219,0.475418117779159
1220,0.465264532330966
1221,0.45657188611332
1222,0.448991961786108
1223,0.44214542880639
1224,0.435579605244355
1225,0.42901161884794
1226,0.422561930326075
1227,0.416556899184033
1228,0.411152943146941
1229,0.406251111836089
1230,0.401705883687026
1231,0.397401287220565
1232,0.393182612833043
1233,0.388951210376712
1234,0.384801110242206
1235,0.380912041017385
1236,0.377332750469659
1237,0.374051404276216
1238,0.371235149036343
1239,0.369102552326421
1240,0.367515180817702
1241,0.365937161815113
1242,0.363916546731731
1243,0.361460363209161
1244,0.35888569805891
1245,0.356475426724588
1246,0.354330264522335
1247,0.352384067417611
1248,0.350431948734735
1249,0.348235702863075
1250,0.345680929213059
1251,0.34278812505746
1252,0.339592665504445
1253,0.336124373441631
1254,0.33251077181545
1255,0.328948198907079
1256,0.325520758548142
1257,0.322137970326478
1258,0.318650033570956
1259,0.314935315107335
1260,0.310925036189804
1261,0.30672250386084
1262,0.302686293314994
1263,0.299224954538628
1264,0.296465890599145
1265,0.294260665268594
1266,0.292500713011045
1267,0.29120958785671
1268,0.290347444174428
1269,0.289734348423786
1270,0.289232963944755
1271,0.288838806664302
1272,0.288524119186912
1273,0.288208595905483
1274,0.287937647187435
1275,0.287881354583647
1276,0.288119197848919
1277,0.288592897622868
1278,0.289292363766149
1279,0.290262484488599
1280,0.291373702412576
1281,0.292331400035482
1282,0.292982716715012
1283,0.29341939857155
1284,0.293746184738985
1285,0.293985742607162
1286,0.294243530072451
1287,0.294700555703077
1288,0.29537987778181
1289,0.29614421523359
1290,0.296982480983305
1291,0.298051595713186
1292,0.299383119298015
1293,0.300813057218045
1294,0.30225283521362
1295,0.303760381458749
1296,0.305302779767319
1297,0.306725804451391
1298,0.308032267699933
1299,0.309416678853907
1300,0.31095129011521
1301,0.312519131220853
1302,0.314104217127182
1303,0.315853189954441
1304,0.317786165607523
1305,0.319724392348326
1306,0.321587305808304
1307,0.323488883480694
1308,0.325493717191729
