"Wave Length","Absorbance"
450,0.99516970269643
451,0.998593146308387
452,1
453,0.996737590987363
454,0.996135954207804
455,0.985299393777152
456,0.983376135089056
457,0.97972300245169
458,0.974901533079897
459,0.971197435669644
460,0.966285105513026
461,0.961432329690671
462,0.958474434866742
463,0.955922462795723
464,0.950448144494752
465,0.942221859553389
466,0.933029581666373
467,0.922042087450238
468,0.907482976120787
469,0.891131167501379
470,0.876053459636757
471,0.861460718312632
472,0.84460374076525
473,0.826568686881103
474,0.811110852313974
475,0.798060105622351
476,0.784944598085168
477,0.77187266204481
478,0.760548653508021
479,0.750583649390537
480,0.740498400211562
481,0.730850845113924
482,0.723270308544259
483,0.717106225628892
484,0.709981674873859
485,0.700998129894898
486,0.69113375107262
487,0.681172998930401
488,0.671498945302469
489,0.663182482578474
490,0.657146334756065
491,0.652306840458994
492,0.646232097153077
493,0.638276340991575
494,0.63039902751477
495,0.624024358361969
496,0.61853886592048
497,0.612684260695768
498,0.606084578222944
499,0.598918594785364
500,0.591018261730605
501,0.581975422757292
502,0.571701277703023
503,0.561005409285563
504,0.551537594781944
505,0.544142765675009
506,0.538276679508754
507,0.532945327064746
508,0.527888132177628
509,0.52385321151671
510,0.520936199477658
511,0.517981834924851
512,0.514201236885217
513,0.510280508563857
514,0.507553917637078
515,0.50618135620661
516,0.505166550833232
517,0.503527884242677
518,0.500836482324048
519,0.496918507829934
520,0.492192574711055
521,0.487900338188296
522,0.484817580389268
523,0.482468925014486
524,0.480317287216378
525,0.478900433579866
526,0.47873020663733
527,0.478868824855024
528,0.478260775781985
529,0.477498429454379
530,0.477597214426924
531,0.478614637403724
532,0.480244630188663
533,0.482813559313596
534,0.486740623317659
535,0.491217380676625
536,0.494818308395767
537,0.497315365123356
538,0.499665429957989
539,0.50213106301702
540,0.504449995477725
541,0.507186900899164
542,0.511395089105232
543,0.517016980138782
544,0.523094253783263
545,0.529249713885247
546,0.53562279169155
547,0.541794399825401
548,0.547358505638996
549,0.553061056922498
550,0.559673818120558
551,0.566379714394374
552,0.571834810142074
553,0.576242914474302
554,0.580717754159623
555,0.585477816137881
556,0.590220296725867
557,0.595509411174928
558,0.601902867271698
559,0.608380109007024
560,0.613517105212496
561,0.617669033891992
562,0.622004300735624
563,0.626016460546755
564,0.628373769525576
565,0.629461822102979
566,0.630819587269525
567,0.632629272201649
568,0.63409700943615
569,0.635539823262638
570,0.637913008733851
571,0.640664315882305
572,0.642482097761645
573,0.643644693515239
574,0.645276123332112
575,0.647020763493184
576,0.647367546766831
577,0.646331124730833
578,0.645402364140365
579,0.645012399718437
580,0.644339412141438
581,0.643244133015287
582,0.642020398890127
583,0.639230993156207
584,0.631751524473428
585,0.617053495002785
586,0.595174543526366
587,0.569079871344625
588,0.543815864375681
589,0.523768713974168
590,0.509339405573567
591,0.496486305372261
592,0.480844381173799
593,0.462535607996204
594,0.445960544118871
595,0.435951191059317
596,0.435409052805343
597,0.444929797474814
598,0.462567902610525
599,0.484100649078519
600,0.504666974012173
601,0.521158768167057
602,0.533062508612173
603,0.541178675863428
604,0.546488471256527
605,0.549899067765051
606,0.551952767249811
607,0.552446691311029
608,0.551164819752662
609,0.549011478159198
610,0.54727348011851
611,0.545804782780955
612,0.543513465819826
613,0.540021029973932
614,0.535769855040158
615,0.530877259457932
616,0.525202245089835
617,0.519396847693685
618,0.514506377457868
619,0.510584905676494
620,0.506935580294597
621,0.50355814139685
622,0.500969154360593
623,0.498793337461747
624,0.495847052361219
625,0.491572637675958
626,0.486227929823577
627,0.480015195005158
628,0.473139083279454
629,0.466544274879597
630,0.461461389589568
631,0.458011287092701
632,0.455459656046523
633,0.45333187309245
634,0.451253268297848
635,0.448241664237328
636,0.443519830690151
637,0.437916508136532
638,0.433147385285559
639,0.429794447502523
640,0.427134123945017
641,0.424619881943957
642,0.422166281655744
643,0.419383428675546
644,0.415924672093314
645,0.412298775913992
646,0.409263616829966
647,0.406730763600242
648,0.404083521017792
649,0.401635442055558
650,0.400330752180145
651,0.399806316658409
652,0.398644167234744
653,0.396414218590366
654,0.393954018637583
655,0.391886579178616
656,0.390039669844799
657,0.388491122478051
658,0.387683616436746
659,0.387390046492236
660,0.38672003669093
661,0.385641787365968
662,0.384393325793782
663,0.382325352681386
664,0.377639079072159
665,0.368715563092558
666,0.355207696506966
667,0.340453247918255
668,0.332772186360835
669,0.341198944751366
670,0.35730908412659
671,0.37004901318618
672,0.377188508045014
673,0.380124258124608
674,0.380006031916726
675,0.376874469807603
676,0.370662252238383
677,0.362292624679954
678,0.35373993170981
679,0.347246549838345
680,0.344006044018327
681,0.343854364389126
682,0.345204506871248
683,0.346399195526573
684,0.346875893684055
685,0.346739929602597
686,0.346038571778516
687,0.344777900059193
688,0.343263765008339
689,0.341917041797265
690,0.340996657192406
691,0.340554914007185
692,0.340409260406193
693,0.340304370005404
694,0.340005064007519
695,0.339381145443309
696,0.338577130111503
697,0.337715054839733
698,0.33677037025081
699,0.335817451205325
700,0.335097310773026
701,0.334871423174323
702,0.335000737274701
703,0.335035480106507
704,0.334859236097768
705,0.334696897688314
706,0.334713662089064
707,0.334830097620383
708,0.334972402268598
709,0.335281123051526
710,0.335752772195655
711,0.3361179532876
712,0.336366973847015
713,0.336750684179227
714,0.337324517739583
715,0.337936203744204
716,0.338615929333839
717,0.339607302864876
718,0.340906802167998
719,0.342124681631169
720,0.342921191029592
721,0.343310533165475
722,0.343464254933272
723,0.343523516903
724,0.343702028450923
725,0.344287574865252
726,0.345321071501724
727,0.34644936192196
728,0.347233991321535
729,0.347424738895965
730,0.346871501090716
731,0.3454233034569
732,0.343106672146482
733,0.339993753856888
734,0.335818427547224
735,0.330081662950096
736,0.322492198612729
737,0.313291910483603
738,0.303340811465809
739,0.294081440352445
740,0.287213486414511
741,0.283974949632496
742,0.28452920898603
743,0.288139236477941
744,0.293877882969345
745,0.300952288299517
746,0.308516990890367
747,0.315627693999405
748,0.321560819603597
749,0.326014892333978
750,0.328998465463209
751,0.33074092360535
752,0.331783350524244
753,0.33292817986834
754,0.334856956808804
755,0.337768575064901
756,0.341328789609948
757,0.344847274146404
758,0.34758330033576
759,0.349142843153741
760,0.349641812574312
761,0.349413584701535
762,0.348656239791966
763,0.347510263165881
764,0.346284108637018
765,0.345253242456141
766,0.34427194334427
767,0.342927899670896
768,0.341102237957572
769,0.339052813833441
770,0.336924799447207
771,0.334567931701969
772,0.331938580839065
773,0.329292346045231
774,0.326801974016252
775,0.324331570549989
776,0.321806632295703
777,0.319488056272054
778,0.317602035680857
779,0.315940534438537
780,0.314110019145286
781,0.312018127104647
782,0.309889896677996
783,0.307958797266049
784,0.306369929603525
785,0.305233180672172
786,0.304528722317082
787,0.304034909566122
788,0.303548775145498
789,0.303179526080816
790,0.303377751240212
791,0.304735958011446
792,0.307696237099126
793,0.312208547270314
794,0.317623496777506
795,0.323208880893559
796,0.328998301197869
797,0.336025865005414
798,0.345516864592837
799,0.357945148674582
800,0.372940398170154
801,0.389931579896448
802,0.408738797976206
803,0.429538084489047
804,0.452321977748542
805,0.476254423628645
806,0.499502345874319
807,0.519811704231727
808,0.535439754904602
809,0.545513093525988
810,0.549509510268659
811,0.54676264701724
812,0.536600252974981
813,0.518891255611576
814,0.494220608598835
815,0.463883170774942
816,0.430110818571821
817,0.395847795121818
818,0.363766015987738
819,0.335374133621801
820,0.311035174980082
821,0.29047291478079
822,0.273182121123937
823,0.258725491781018
824,0.246862557748044
825,0.237277835867151
826,0.229285698002946
827,0.222376217680092
828,0.216919984019346
829,0.213658293676519
830,0.212375704442457
831,0.211703028620576
832,0.210563229630411
833,0.209202943273267
834,0.208419917656719
835,0.208281105842541
836,0.208156490285433
837,0.207735973588928
838,0.20736092765542
839,0.207413304389549
840,0.207871542346712
841,0.208529415915628
842,0.20931433358175
843,0.210291824033218
844,0.211589224229013
845,0.213357712093655
846,0.215586864943345
847,0.217916266527501
848,0.219807261363498
849,0.221017200338855
850,0.221878991331374
851,0.223072908216123
852,0.225093318094272
853,0.227821117983629
854,0.23058578681117
855,0.232762089073246
856,0.234354875896298
857,0.235931626113915
858,0.238032962503238
859,0.240794217101907
860,0.244070386252021
861,0.247607452364149
862,0.251024280377703
863,0.253937674544622
864,0.256290386986173
865,0.258338669855745
866,0.260191759156575
867,0.261614118047098
868,0.262379752581375
869,0.262567925775043
870,0.262358544046783
871,0.26183192784518
872,0.261104736657985
873,0.260345965702912
874,0.25958657442228
875,0.258969693918963
876,0.259263220049672
877,0.261395915593807
878,0.264975401042224
879,0.267884850238369
880,0.268108304034077
881,0.265705743031191
882,0.262473565557619
883,0.259967075508529
884,0.258508048437777
885,0.257818567971239
886,0.25772220881916
887,0.258147409460751
888,0.259098627509116
889,0.260776146402417
890,0.263198451580664
891,0.26556258525956
892,0.266537607491329
893,0.265572096188227
894,0.263558917587168
895,0.261925281123953
896,0.261321050696399
897,0.261355381442253
898,0.261317458470628
899,0.260835368849825
900,0.259960769263645
901,0.258945904655041
902,0.257982509745944
903,0.257063259107918
904,0.256015916154794
905,0.254666317185006
906,0.252943944551525
907,0.250901267071687
908,0.248734640326778
909,0.246727960133921
910,0.245043275849584
911,0.243580358030162
912,0.242153880891435
913,0.240762197881606
914,0.239553888396744
915,0.238575728172786
916,0.237707169022291
917,0.236838658527348
918,0.235990503559549
919,0.23526037498861
920,0.234747985809976
921,0.234503995353983
922,0.23444151279383
923,0.23433522173117
924,0.234034166750416
925,0.233665314307782
926,0.233516736079492
927,0.233722010370433
928,0.234169491259486
929,0.234693154907245
930,0.235226318831335
931,0.235760095071196
932,0.236263071870672
933,0.236686109317273
934,0.236991435399227
935,0.237178024620502
936,0.237332054035899
937,0.23761508959781
938,0.238127439460162
939,0.238806559476915
940,0.239517734382949
941,0.240200501859139
942,0.240850809240779
943,0.241421910847824
944,0.241865289699708
945,0.242249471527083
946,0.242725656380207
947,0.24336686453055
948,0.244102212478233
949,0.244792615470577
950,0.245323594918177
951,0.245664606379217
952,0.245915372584256
953,0.246260254692852
954,0.246801425138056
955,0.247469588579678
956,0.24816299756104
957,0.248919617703341
958,0.249866695802286
959,0.25103540469345
960,0.252305907578847
961,0.253507517648206
962,0.254507228434891
963,0.25525375581783
964,0.255829178870957
965,0.256422367463104
966,0.257166842597105
967,0.258027381200503
968,0.258904099245828
969,0.259810408283496
970,0.260873520340658
971,0.262188939252986
972,0.26372328447063
973,0.2653054049291
974,0.266670460528657
975,0.267608452058202
976,0.26817712265894
977,0.268735719344962
978,0.269673344418631
979,0.271132446941912
980,0.273013468108382
981,0.275129257905296
982,0.277279280012085
983,0.279281764591239
984,0.281081078927073
985,0.282791604210851
986,0.284547966899462
987,0.286373667399575
988,0.288272368560391
989,0.290339427179937
990,0.292647273006914
991,0.29509649970134
992,0.29754148825782
993,0.300024703560904
994,0.302757867021506
995,0.305904747502327
996,0.309468150854704
997,0.313348575454454
998,0.317403265671174
999,0.321514803846174
1000,0.325729625260733
1001,0.330268267424903
1002,0.3353019057353
1003,0.340762891298906
1004,0.346448635529325
1005,0.352190472261679
1006,0.357811079073604
1007,0.363108561008555
1008,0.368109129214635
1009,0.37320376306008
1010,0.378774170721694
1011,0.384753250913697
1012,0.39077229950332
1013,0.39660097470901
1014,0.402164714994845
1015,0.407249107903509
1016,0.411566624395967
1017,0.415068747551393
1018,0.41789601396239
1019,0.420111931613627
1020,0.421732175632059
1021,0.422905214136253
1022,0.423882492141701
1023,0.425236425883478
1024,0.428358734492335
1025,0.434727115944268
1026,0.443433082859496
1027,0.449929872040385
1028,0.449128532883427
1029,0.440596920580243
1030,0.429532278595103
1031,0.421800698244007
1032,0.419169235028133
1033,0.41984545824319
1034,0.422136418986716
1035,0.425780855914403
1036,0.430091331271203
1037,0.432970187855538
1038,0.432800854371767
1039,0.430376746104449
1040,0.428080517940237
1041,0.427560800999222
1042,0.428846184868719
1043,0.431293661378966
1044,0.434553525226026
1045,0.438524645599214
1046,0.442950909469145
1047,0.447390221907068
1048,0.451468958814746
1049,0.455052169261231
1050,0.458181240195515
1051,0.460820597873566
1052,0.462780559616277
1053,0.464204837968959
1054,0.466130189519101
1055,0.469813047045836
1056,0.474818589584664
1057,0.478134408662392
1058,0.476225116196494
1059,0.468593403096617
1060,0.458920171120994
1061,0.452519301453248
1062,0.453050558745798
1063,0.461388495716687
1064,0.475718831686727
1065,0.491181394913077
1066,0.500710936684133
1067,0.499142483720245
1068,0.487899191756766
1069,0.474438048619032
1070,0.466104160806067
1071,0.464979624374219
1072,0.46847213010748
1073,0.473158362965957
1074,0.477064437158685
1075,0.479311526472107
1076,0.479433287284421
1077,0.477405239468326
1078,0.473434323135785
1079,0.46749808643963
1080,0.459620468983494
1081,0.450447387478253
1082,0.440967319368242
1083,0.43162490162646
1084,0.422278102497493
1085,0.412938336778623
1086,0.404007422094902
1087,0.395773638386392
1088,0.387971482710582
1089,0.379890768972376
1090,0.370857991264695
1091,0.360908953858714
1092,0.351168853211817
1093,0.343259375582748
1094,0.338004835678646
1095,0.334867345784366
1096,0.332784342535955
1097,0.331151065165302
1098,0.329796621461505
1099,0.328510088215712
1100,0.327060725427608
1101,0.325520994409713
1102,0.323980418859881
1103,0.322281266096668
1104,0.320091698809637
1105,0.317405049292973
1106,0.3144607253114
1107,0.311302867439332
1108,0.307874340125781
1109,0.304299610446184
1110,0.300767856609517
1111,0.297255056254687
1112,0.293705909268584
1113,0.290334487476801
1114,0.287372507701694
1115,0.28472075951065
1116,0.282181515637394
1117,0.279822915259919
1118,0.277792186393301
1119,0.27597296754834
1120,0.274173347672809
1121,0.272507544865497
1122,0.271239683598593
1123,0.27040834862133
1124,0.269918113718244
1125,0.269722861842596
1126,0.269449018324299
1127,0.268102372149241
1128,0.264891297673135
1129,0.260543854536277
1130,0.257133484361436
1131,0.256144011976057
1132,0.257187530133687
1133,0.258814137790284
1134,0.259936414752251
1135,0.260272484630993
1136,0.260015995179794
1137,0.259514107151803
1138,0.259077539338955
1139,0.258786714174821
1140,0.258471945952416
1141,0.257982890751187
1142,0.257410472421268
1143,0.256974894096047
1144,0.256793775647981
1145,0.256822780450151
1146,0.256917285565789
1147,0.256889328521537
1148,0.256612727373855
1149,0.256167282314364
1150,0.255823934388305
1151,0.255840683153192
1152,0.256313322564419
1153,0.257187839590219
1154,0.258313338511142
1155,0.259475578545178
1156,0.260509416749112
1157,0.261449806617036
1158,0.262494329960727
1159,0.263812618882854
1160,0.265433654167726
1161,0.267267792413251
1162,0.269140754010818
1163,0.270844423646636
1164,0.272302140096788
1165,0.273676634546495
1166,0.275199712390201
1167,0.276901014375123
1168,0.278605905200212
1169,0.280133764763558
1170,0.281345204355159
1171,0.282076024732167
1172,0.282227183541013
1173,0.281933019738189
1174,0.281458546186289
1175,0.28093297271188
1176,0.28032283538177
1177,0.279568270126063
1178,0.278584388704455
1179,0.277259116007959
1180,0.275735476929174
1181,0.274638489653672
1182,0.274652142533074
1183,0.27578051105941
1184,0.277297793224285
1185,0.278459676928879
1186,0.279040580459031
1187,0.279218348747541
1188,0.279255581151612
1189,0.279397765275248
1190,0.279789457580346
1191,0.280305027578037
1192,0.280613128784226
1193,0.280530289148581
1194,0.280166191748445
1195,0.279649158293923
1196,0.278921262380087
1197,0.277882002984562
1198,0.276548056371693
1199,0.274974379020853
1200,0.273178873445316
1201,0.271276188816645
1202,0.269515815418056
1203,0.2680630177974
1204,0.26687183083677
1205,0.265856108557664
1206,0.265053925800471
1207,0.264555639181127
1208,0.264404383981316
1209,0.264651011296133
1210,0.265394451314021
1211,0.266620740353833
1212,0.268138737286794
1213,0.269814053359839
1214,0.271717125745591
1215,0.273920556019609
1216,0.276284149542732
1217,0.278613225884579
1218,0.280890376179475
1219,0.283184435613856
1220,0.285456580876383
1221,0.287622965953757
1222,0.28971920188154
1223,0.291834265047659
1224,0.293965882696554
1225,0.296059323919751
1226,0.298101322326778
1227,0.300029957565771
1228,0.301644137665456
1229,0.302787731868429
1230,0.303483732110661
1231,0.30372181546535
1232,0.303272684228197
1233,0.301944418837699
1234,0.299902680378553
1235,0.297478455437082
1236,0.294895018098308
1237,0.292659393724311
1238,0.292094869537074
1239,0.294624131260425
1240,0.299899973272024
1241,0.305086248340252
1242,0.306924195798854
1243,0.304700399773362
1244,0.300826339927744
1245,0.298505144919488
1246,0.299194861937916
1247,0.302325887215049
1248,0.306523084645464
1249,0.310420318482481
1250,0.312840398269821
1251,0.31319335697302
1252,0.311968756126749
1253,0.310332399541087
1254,0.309040644505611
1255,0.308029787623301
1256,0.307018749378097
1257,0.306009316866347
1258,0.305039477212154
1259,0.303897226856527
1260,0.302367638964881
1261,0.300493358219195
1262,0.298360855517665
1263,0.295886533072767
1264,0.293096589471515
1265,0.29031325909243
1266,0.287834431461594
1267,0.285652832125926
1268,0.28365233916101
1269,0.281852542718989
1270,0.280247622935224
1271,0.27864610713145
1272,0.276930550193917
1273,0.275277329482284
1274,0.273905303515233
1275,0.272801076611372
1276,0.27186331396528
1277,0.271098017579883
1278,0.270508212639399
1279,0.269969674425636
1280,0.269401312869754
1281,0.268926959097759
1282,0.268711672042432
1283,0.268734095671843
1284,0.268889215561612
1285,0.269174152153765
1286,0.269589502551895
1287,0.269924590722004
1288,0.269858127446998
1289,0.269325423810654
1290,0.268594873316823
1291,0.267994091748117
1292,0.267724320136234
1293,0.267864688141752
1294,0.268372359503656
1295,0.269069771676464
1296,0.269754730382805
1297,0.270346857768136
1298,0.270855747644095
1299,0.271262128856021
1300,0.271560174067205
1301,0.271839759956427
1302,0.272225675650191
1303,0.272742265792106
1304,0.273325264330761
1305,0.273915661344358
1306,0.274419864340392
1307,0.274662821879199
1308,0.274545101201931
