"Wave Length","Absorbance"
450,0.838583192229888
451,0.844758787251398
452,0.850845236632576
453,0.856175251110495
454,0.861092822639409
455,0.86582339800982
456,0.862607993492888
457,0.861499165138097
458,0.862964269867341
459,0.865192708063209
460,0.865582619704759
461,0.864521631987877
462,0.864292324578251
463,0.86437460458582
464,0.863083751547381
465,0.860742094622848
466,0.858263225600289
467,0.854531655773572
468,0.848275438362506
469,0.840993688694897
470,0.83438747692295
471,0.826829413793139
472,0.815693882687537
473,0.802114852043694
474,0.789183466909147
475,0.776682612414136
476,0.762792195324386
477,0.747805323978985
478,0.733027930985021
479,0.718176310046266
480,0.702483844626546
481,0.686829269947376
482,0.672303604968622
483,0.657855400991077
484,0.641806113844654
485,0.624821756867787
486,0.608860230911318
487,0.594188124344728
488,0.579792032413641
489,0.565488554331454
490,0.551691251128647
491,0.537999795952133
492,0.523872456785665
493,0.510280153128764
494,0.498770406829358
495,0.489129377824285
496,0.479911298308301
497,0.470692578598893
498,0.462393248615582
499,0.455639861438954
500,0.450046201063726
501,0.445188111849973
502,0.440955459599182
503,0.43690209233889
504,0.432541153449538
505,0.428153354920398
506,0.424430201117127
507,0.421484532839304
508,0.418843844045069
509,0.416337825296861
510,0.41407402001636
511,0.411790969632485
512,0.409108062671904
513,0.406126905220986
514,0.403167092781057
515,0.400037428271881
516,0.396433279323034
517,0.392810542128548
518,0.389941135601965
519,0.387642935226098
520,0.385167989110932
521,0.382703833612983
522,0.38114631230663
523,0.380756230487692
524,0.381007814824851
525,0.381464533507112
526,0.382009890691122
527,0.382362102016458
528,0.382294006991834
529,0.382245647751685
530,0.382785669411664
531,0.383802426484899
532,0.384719879284431
533,0.385287863937347
534,0.385625873308142
535,0.385594585214776
536,0.384913034587475
537,0.383818759261073
538,0.382925710698319
539,0.382455261706899
540,0.382379562628218
541,0.382880589358017
542,0.383955708491793
543,0.384873716220069
544,0.38490398175604
545,0.384355710345007
546,0.384093535498619
547,0.3842622926189
548,0.384332435724321
549,0.384186232309388
550,0.384226791693267
551,0.384661083646781
552,0.385467582714407
553,0.386832984905253
554,0.388840534027555
555,0.390989259734594
556,0.392725678460204
557,0.394203799387376
558,0.39572668498128
559,0.396862540801913
560,0.39700444666598
561,0.396442708450248
562,0.395932691251099
563,0.395571789879529
564,0.395139764941744
565,0.395029989190692
566,0.39574745981792
567,0.39678302133895
568,0.397149895489361
569,0.396850900296213
570,0.396780879935985
571,0.397303221440683
572,0.39799112811172
573,0.398549511198061
574,0.398939720853387
575,0.398915637883665
576,0.3983958359684
577,0.398114870052811
578,0.398738751644369
579,0.39966722631426
580,0.399714725740703
581,0.398804871336801
582,0.398029952249936
583,0.398109493626386
584,0.398821252207666
585,0.399757622885839
586,0.400760541629895
587,0.401617484116976
588,0.40218152748241
589,0.402730543279583
590,0.403570358292385
591,0.404356977128498
592,0.404564141974031
593,0.404462616541364
594,0.404757154558972
595,0.405465784020058
596,0.406043627934067
597,0.406368793439661
598,0.406713521136791
599,0.406935670221272
600,0.406527277506187
601,0.405493047651378
602,0.40433348953124
603,0.403162538949466
604,0.401642969675946
605,0.399679464491862
606,0.397521373044647
607,0.395206450246678
608,0.392608774853338
609,0.389997957353449
610,0.387775519700144
611,0.385696818130694
612,0.383287359272717
613,0.380756498140561
614,0.378760857484538
615,0.3774936204132
616,0.376858514108568
617,0.377324978428238
618,0.379480786892925
619,0.382612821853819
620,0.384879788702704
621,0.385253122643312
622,0.384366001894144
623,0.383146096361002
624,0.381303035471226
625,0.377544984713155
626,0.370880129753388
627,0.36159966969054
628,0.351288028293662
629,0.34189784226351
630,0.334567616936493
631,0.329131752134162
632,0.324887385607279
633,0.321535873330627
634,0.319172127222051
635,0.317794687638317
636,0.317310755972397
637,0.31777691389073
638,0.319124600998986
639,0.3208240562856
640,0.322467713242529
641,0.324554219868767
642,0.32778051277391
643,0.331526790759251
644,0.333819425539515
645,0.332930177542146
646,0.328635160726118
647,0.322169426400353
648,0.315475810692831
649,0.310320155169552
650,0.307272825251899
651,0.305413848708819
652,0.30365915857647
653,0.302026684315889
654,0.301042138656316
655,0.300547792124239
656,0.299842667382946
657,0.298808143207858
658,0.297930390026279
659,0.297422031878349
660,0.297087460517778
661,0.29691575480799
662,0.296822872677798
663,0.296271913178266
664,0.29439789610107
665,0.290706106573695
666,0.285555100910551
667,0.280737775499722
668,0.279443008899072
669,0.284528197097551
670,0.292221321792083
671,0.298585339357839
672,0.303046631250135
673,0.306157817822335
674,0.308383779553213
675,0.310002971279732
676,0.311413708758785
677,0.312879161996958
678,0.314163441622371
679,0.314830206421146
680,0.314714484525117
681,0.31405781879295
682,0.313134098015258
683,0.312256441061518
684,0.311782535669664
685,0.311907848169314
686,0.312648151988484
687,0.313991707402109
688,0.315956525733972
689,0.318476957531909
690,0.321468034551315
691,0.324979376946308
692,0.329116552952306
693,0.333968754061182
694,0.339620367307763
695,0.346228894957999
696,0.354054610076117
697,0.363161156075343
698,0.373238798208136
699,0.383746348799412
700,0.394051853994665
701,0.403391665433538
702,0.410680903148439
703,0.414852775994101
704,0.415852121689196
705,0.415223366157926
706,0.415630865825649
707,0.419749290587172
708,0.429495369412893
709,0.445224107131881
710,0.463874425560396
711,0.4777172839368
712,0.477038529340671
713,0.45653950498726
714,0.420092907722457
715,0.378370874667284
716,0.341651291477065
717,0.314839104252299
718,0.297615666113588
719,0.287407479541538
720,0.281735101030558
721,0.278900419032777
722,0.277893913325718
723,0.278210643465993
724,0.279526897630604
725,0.281414036467464
726,0.28340476757021
727,0.285276105222286
728,0.28707663483899
729,0.288833772723451
730,0.290418408109887
731,0.291728463290323
732,0.29287360645559
733,0.29403864353816
734,0.295303018897717
735,0.296700759898757
736,0.298234568646629
737,0.299772522701899
738,0.301087088342461
739,0.302046829175442
740,0.302645538037252
741,0.302840207563053
742,0.302531026800908
743,0.301774445295641
744,0.300888537748846
745,0.300243680902772
746,0.29999347813309
747,0.300058829336781
748,0.300303489217181
749,0.300662256975648
750,0.301164110926745
751,0.30191047404946
752,0.302995573464577
753,0.304380488275721
754,0.305869070174833
755,0.307270260409677
756,0.308555979512211
757,0.309806838691767
758,0.31106982663902
759,0.312374442875383
760,0.31383102108301
761,0.315577103498351
762,0.317618551038903
763,0.319830300741647
764,0.322146486252905
765,0.324670883772641
766,0.327594742676617
767,0.331090313872102
768,0.33526290765939
769,0.340034240292249
770,0.344981045619209
771,0.349428399630726
772,0.352882592146396
773,0.355402453808938
774,0.357493864375609
775,0.359665821382169
776,0.362131031246836
777,0.364835447710756
778,0.367625722008115
779,0.370370359013865
780,0.373009368185107
781,0.375522062298288
782,0.377834456126907
783,0.379791474244504
784,0.381250010189787
785,0.382157158002508
786,0.382511056772651
787,0.382346601322608
788,0.38184214073224
789,0.381312681378485
790,0.380947472026632
791,0.3805983425001
792,0.379952407127777
793,0.37889428704587
794,0.377587747464076
795,0.376257311671336
796,0.375016889983994
797,0.373861286556956
798,0.372692816656845
799,0.371384442429185
800,0.369936118914078
801,0.368549734609468
802,0.367472036833867
803,0.366805751843936
804,0.366507513325106
805,0.366408220676977
806,0.366114506821051
807,0.36506713091185
808,0.362970752404628
809,0.360148963339216
810,0.357320760167328
811,0.355039471789312
812,0.353413810137764
813,0.352233679367804
814,0.351168206875153
815,0.34993073511388
816,0.348470787775206
817,0.347007273304595
818,0.345744168383226
819,0.344630138565944
820,0.343543115431532
821,0.342610868942033
822,0.342164673019703
823,0.342448682255818
824,0.343552680797116
825,0.345465336970397
826,0.347848084107023
827,0.349757564275099
828,0.349951809938779
829,0.34768773103035
830,0.343229447546346
831,0.33767385487223
832,0.33238262168063
833,0.328395346063279
834,0.326039165843738
835,0.324993932446156
836,0.324788703615634
837,0.325191285509521
838,0.326127204186886
839,0.327469769210435
840,0.329153579666487
841,0.331357181174207
842,0.334409407425231
843,0.338623180845922
844,0.344253848842318
845,0.351135494211777
846,0.357922079787951
847,0.362169887899954
848,0.362140707199287
849,0.358826431508676
850,0.355579913797922
851,0.355387518881236
852,0.358848243914811
853,0.364672590335937
854,0.37144027752642
855,0.378538831073139
856,0.38593330492588
857,0.393793407418041
858,0.402407716164156
859,0.412051871521108
860,0.422888834607716
861,0.435057529543522
862,0.448708438136614
863,0.463827546119367
864,0.480200444426613
865,0.497798121685789
866,0.516947208435888
867,0.537843050595218
868,0.559908767580308
869,0.581665213715918
870,0.600904329935341
871,0.614895381767129
872,0.621125102485778
873,0.618418147000625
874,0.607413804064413
875,0.589710637907514
876,0.566918046930505
877,0.540582179593945
878,0.512320946990477
879,0.483829300979205
880,0.456641787687637
881,0.431627877583561
882,0.408353834397835
883,0.385152748826718
884,0.360562144905192
885,0.334996133924771
886,0.310964053252951
887,0.291557737845761
888,0.278716387642953
889,0.272452059653115
890,0.271222914186286
891,0.272915135132335
892,0.275754360101851
893,0.27885331792101
894,0.28206274232668
895,0.285405432905695
896,0.28871147219421
897,0.291691370174828
898,0.294155861514979
899,0.296047988164373
900,0.297422457832226
901,0.298475085775498
902,0.299444526758865
903,0.300419710170254
904,0.301378197407669
905,0.302446445018356
906,0.303950979301173
907,0.306147231282643
908,0.309073620798372
909,0.312679833766703
910,0.316862124189217
911,0.321330257695015
912,0.325701817917234
913,0.329859630262895
914,0.333964381740666
915,0.338012427242111
916,0.341660283511277
917,0.344657254406679
918,0.34714042063177
919,0.349288890372314
920,0.350990313717958
921,0.352108601300205
922,0.352845071375587
923,0.353519497802256
924,0.354192378951497
925,0.354801689889502
926,0.355520106530803
927,0.35665292744413
928,0.358260603353108
929,0.360153388187468
930,0.362219719065027
931,0.364563146539494
932,0.367327668698196
933,0.370528758069121
934,0.37394890612062
935,0.377050520731114
936,0.37915404747909
937,0.379958109589053
938,0.379824196821946
939,0.379380623171133
940,0.378945431984392
941,0.378484930740178
942,0.377984183793025
943,0.377605181365735
944,0.377538561741353
945,0.377904705138415
946,0.378787531910466
947,0.380188586287019
948,0.381927684447315
949,0.383703902080053
950,0.385255307157455
951,0.386440364133897
952,0.387301579319366
953,0.388157864706987
954,0.389497674206838
955,0.391582531840307
956,0.394208882268178
957,0.396955711751918
958,0.399571358993287
959,0.401999752062463
960,0.404156735546641
961,0.405915713848444
962,0.407303050450206
963,0.408576303992663
964,0.41011565516221
965,0.412274605266084
966,0.415212817395403
967,0.418698145631781
968,0.422094736444407
969,0.424695605963453
970,0.426163004928733
971,0.426714552331384
972,0.426995914986798
973,0.427726625155338
974,0.42924355952854
975,0.431288440892236
976,0.433322233633309
977,0.435075316184372
978,0.43668903647555
979,0.438355616704518
980,0.440069383240544
981,0.441790135154434
982,0.443615611703539
983,0.445640168609574
984,0.44779324696392
985,0.449934476696299
986,0.451988012158882
987,0.453951462645926
988,0.455941709678556
989,0.458280841530315
990,0.461318745586762
991,0.465068821427876
992,0.469223122159139
993,0.473592798085854
994,0.478292343671133
995,0.483394981830457
996,0.488664413780374
997,0.493846468846184
998,0.499024809628941
999,0.504518940801253
1000,0.510614307524292
1001,0.517500490372672
1002,0.525291318815533
1003,0.533908294058828
1004,0.543072896782733
1005,0.552511748535482
1006,0.562001530808929
1007,0.571202943085929
1008,0.579763972881615
1009,0.587708662282983
1010,0.595413560234153
1011,0.603078149046263
1012,0.610499172325359
1013,0.617441693147394
1014,0.623883040335937
1015,0.629851129455118
1016,0.635491293331519
1017,0.641351596696724
1018,0.648072222959412
1019,0.655683756369017
1020,0.663768873322237
1021,0.67238566985776
1022,0.682149554880496
1023,0.693282189723922
1024,0.705392781080825
1025,0.718478155430145
1026,0.733016385290549
1027,0.748251290793983
1028,0.761198023909173
1029,0.768576684249946
1030,0.769726344677718
1031,0.767167831984057
1032,0.764718221757741
1033,0.765461347898453
1034,0.770715662450895
1035,0.779814623804207
1036,0.790779648364828
1037,0.801739582877052
1038,0.811947236623602
1039,0.821446135564403
1040,0.830307667603383
1041,0.838539090897987
1042,0.846259694161637
1043,0.853476629126982
1044,0.860036659026272
1045,0.866126208419526
1046,0.872409380701466
1047,0.879335484038127
1048,0.886670414087717
1049,0.893977388671648
1050,0.901047158911348
1051,0.90761422417424
1052,0.913353712031909
1053,0.918588924755616
1054,0.924323428270698
1055,0.931056949429095
1056,0.93811228481704
1057,0.944499629822934
1058,0.949879550931516
1059,0.954352018790962
1060,0.957955889138733
1061,0.960910895154756
1062,0.963856725300048
1063,0.967304395741105
1064,0.971144423019796
1065,0.97494036998605
1066,0.978336409651311
1067,0.981074120444187
1068,0.983163883183893
1069,0.985208947742911
1070,0.987927286657743
1071,0.99114964435817
1072,0.993927145169609
1073,0.995810470102429
1074,0.997329496095084
1075,0.998920531552863
1076,1
1077,0.999445974368617
1078,0.996461035579484
1079,0.990973178222988
1080,0.983977616538788
1081,0.977536759200935
1082,0.973448795141331
1083,0.971497852965211
1084,0.969695980786365
1085,0.966404917309246
1086,0.961674520520973
1087,0.956548940056196
1088,0.951902921760607
1089,0.948116237291993
1090,0.945080781918608
1091,0.942179644462864
1092,0.938802453410647
1093,0.935088560075118
1094,0.931689724170703
1095,0.92878971695232
1096,0.925937614339208
1097,0.922805567771709
1098,0.919389473471135
1099,0.915500314633545
1100,0.910873452142902
1101,0.905836096872085
1102,0.901013635544417
1103,0.896319987115862
1104,0.890916872776395
1105,0.884421310857131
1106,0.877272950998655
1107,0.86979295707725
1108,0.861734219547348
1109,0.85289776651869
1110,0.843476685557208
1111,0.83354114983558
1112,0.822931568736121
1113,0.811840323246242
1114,0.800819591679035
1115,0.790117349992032
1116,0.779601526439715
1117,0.769391451491335
1118,0.75992512115606
1119,0.751366916191535
1120,0.743541236371397
1121,0.73643791744253
1122,0.730057825757732
1123,0.723732311624845
1124,0.716422425709556
1125,0.707924319996631
1126,0.699105139790684
1127,0.690742140352062
1128,0.682802884515478
1129,0.675099886764389
1130,0.667921919119691
1131,0.661566274039117
1132,0.655869143492905
1133,0.650626296975772
1134,0.645978449572804
1135,0.641994926506134
1136,0.63831807592264
1137,0.634557126904637
1138,0.630676941085002
1139,0.626756157215036
1140,0.622767409883754
1141,0.618916763707054
1142,0.615773168933276
1143,0.613628672393034
1144,0.6120114373759
1145,0.610198571355372
1146,0.608025110595921
1147,0.6059079688317
1148,0.604271916081199
1149,0.603234848432025
1150,0.602640347685689
1151,0.602116418791403
1152,0.601215575977098
1153,0.599706307409103
1154,0.597607662346093
1155,0.594886676208396
1156,0.591387106455301
1157,0.587156658100146
1158,0.582593145332985
1159,0.578093143946851
1160,0.573779099746341
1161,0.569678654841944
1162,0.565924046642478
1163,0.562632478603788
1164,0.559781740659221
1165,0.557306751785683
1166,0.555117124470625
1167,0.552937305349547
1168,0.550362431635668
1169,0.54723686753269
1170,0.543828212558184
1171,0.540546001830807
1172,0.537655375632947
1173,0.535265764390615
1174,0.533367671627339
1175,0.531812261660019
1176,0.530429415904334
1177,0.52920528644185
1178,0.52814774590939
1179,0.527036879962423
1180,0.525625420874145
1181,0.524093418769266
1182,0.522943965979011
1183,0.522359450890251
1184,0.52203112138709
1185,0.521703087766317
1186,0.521504923048077
1187,0.521683735171127
1188,0.522346617499357
1189,0.523607534970226
1190,0.525685714491552
1191,0.528635833551144
1192,0.532310970704849
1193,0.536724305679714
1194,0.542170615984498
1195,0.548898625454086
1196,0.556892981148448
1197,0.566158759480182
1198,0.57680384615291
1199,0.588553217407129
1200,0.600430973155947
1201,0.611160498241664
1202,0.619651643523589
1203,0.625103436968177
1204,0.627236644524277
1205,0.626511653470699
1206,0.623727582596874
1207,0.619119970916096
1208,0.612292638311138
1209,0.603173859428117
1210,0.592278727052062
1211,0.580029979013631
1212,0.56637668316451
1213,0.55134865831186
1214,0.535545049960714
1215,0.519734558692233
1216,0.504407262229014
1217,0.489894170613188
1218,0.476560266523843
1219,0.464617034832696
1220,0.453998717966054
1221,0.444580371018178
1222,0.436337912554267
1223,0.429172706872722
1224,0.422741189526326
1225,0.416702529173657
1226,0.410961286245119
1227,0.405510779381937
1228,0.400237951141907
1229,0.395054613589145
1230,0.390091575656345
1231,0.385513453184259
1232,0.381219028544569
1233,0.376936389253855
1234,0.372540144549539
1235,0.368125189095529
1236,0.363846752939174
1237,0.359867838998325
1238,0.356413878951478
1239,0.353642911206648
1240,0.351410216532567
1241,0.34928668677715
1242,0.346874171881806
1243,0.344071688516025
1244,0.341070024990228
1245,0.338171537516247
1246,0.335563532625495
1247,0.333174025790478
1248,0.330744932016493
1249,0.328080499069844
1250,0.32518987038183
1251,0.322171434189117
1252,0.319074766402416
1253,0.315928721924927
1254,0.31280537523872
1255,0.309760164568465
1256,0.306754475770391
1257,0.303703040307007
1258,0.300543596481045
1259,0.297205415944809
1260,0.293621600201836
1261,0.289891040010314
1262,0.286324903800911
1263,0.283206711286178
1264,0.280585428280591
1265,0.278388165600929
1266,0.276640162878405
1267,0.275408599734528
1268,0.274620371888193
1269,0.274108059262399
1270,0.273802275830479
1271,0.273725580557039
1272,0.273814013147397
1273,0.273917967527114
1274,0.273977744033594
1275,0.27405764835997
1276,0.274226881631316
1277,0.274531721887654
1278,0.275060828069973
1279,0.27587625359251
1280,0.27687997227648
1281,0.277886352568667
1282,0.278810972929489
1283,0.27964170246452
1284,0.280296586477557
1285,0.280717295204599
1286,0.281078370608489
1287,0.281679918230268
1288,0.282605811219188
1289,0.283675316388815
1290,0.284720338492699
1291,0.285714474485778
1292,0.286659859853239
1293,0.287571073554211
1294,0.288568553509507
1295,0.289776912915753
1296,0.291130949240044
1297,0.292462493311156
1298,0.293750854221757
1299,0.295086155595208
1300,0.296456518830706
1301,0.297807900534029
1302,0.299265738450365
1303,0.301019200175787
1304,0.303002514051151
1305,0.304958739689971
1306,0.306801334906004
1307,0.308663929525477
1308,0.310604622019751
